timestamp,x,y,z
1535253223688080,0.23291,-0.96582,0.233887
1535253223710909,0.229004,-0.964844,0.237305
1535253223726159,0.225586,-0.947754,0.237305
1535253223749722,0.20166,-0.953613,0.214355
1535253223770867,0.192383,-0.962891,0.227539
1535253223786053,0.217285,-0.945801,0.217773
1535253223809436,0.222656,-0.942383,0.206055
1535253223830937,0.219727,-0.936523,0.186523
1535253223878564,0.213867,-0.951172,0.19873
1535253223879567,0.233398,-0.952148,0.199219
1535253223900122,0.246094,-0.938477,0.20166
1535253223914159,0.245117,-0.945313,0.20459
1535253223929199,0.236328,-0.967773,0.218262
1535253223955268,0.222168,-0.975586,0.217285
1535253224005412,0.225586,-0.974609,0.228027
1535253224005904,0.225098,-0.96875,0.212891
1535253224011919,0.226563,-0.966797,0.203125
1535253224025455,0.222168,-0.970703,0.204102
1535253224049018,0.219238,-0.97168,0.213867
1535253224070575,0.210449,-0.972168,0.213379
1535253224085615,0.208984,-0.974121,0.209961
1535253224108224,0.206055,-0.978516,0.209473
1535253224130735,0.212402,-0.981934,0.203125
1535253224145806,0.217773,-0.979492,0.192871
1535253224168336,0.213867,-0.978027,0.20166
1535253224190895,0.219238,-0.970703,0.199707
1535253224205935,0.214844,-0.972168,0.199707
1535253224228040,0.211426,-0.969238,0.19043
1535253224250555,0.217285,-0.953613,0.193359
1535253224265690,0.214844,-0.952637,0.197754
1535253224288154,0.209961,-0.973145,0.194336
1535253224310714,0.214355,-0.967285,0.199707
1535253224325754,0.20166,-0.959473,0.196777
1535253224348314,0.198242,-0.961426,0.20166
1535253224370874,0.203125,-0.954102,0.199707
1535253224385914,0.207031,-0.946289,0.195801
1535253224407973,0.206055,-0.967285,0.197754
1535253224430533,0.211914,-0.96875,0.188965
1535253224445573,0.200684,-0.96582,0.194824
1535253224468177,0.186523,-0.984375,0.204102
1535253224490693,0.172852,-1.00781,0.217773
1535253224521776,0.166992,-1.02246,0.20459
1535253224528294,0.158691,-1.01855,0.208008
1535253224550854,0.148926,-1.00146,0.214844
1535253224565893,0.140625,-0.996094,0.213867
1535253224587952,0.125977,-1.00391,0.203125
1535253224610511,0.120605,-1.00391,0.205078
1535253224625553,0.110352,-0.992188,0.215332
1535253224648112,0.104492,-0.976563,0.203613
1535253224670672,0.0957031,-0.980957,0.204102
1535253224688720,0.0830078,-0.985352,0.213379
1535253224708272,0.0595703,-0.987305,0.224121
1535253224730832,0.0551758,-0.978516,0.219238
1535253224745872,0.050293,-0.981934,0.210938
1535253224768433,0.0341797,-0.987793,0.21875
1535253224790552,0.0117188,-0.986328,0.229004
1535253224807036,0.0117188,-0.970703,0.225098
1535253224828091,-0.00732422,-0.978516,0.229004
1535253224850986,-0.0302734,-0.974609,0.229004
1535253224873329,-0.0507813,-0.962402,0.236816
1535253224888251,-0.0615234,-0.96875,0.242676
1535253224910811,-0.0678711,-0.968262,0.229492
1535253224933371,-0.0878906,-0.95752,0.217773
1535253224948411,-0.124023,-0.972168,0.216797
1535253224970470,-0.146484,-0.990234,0.216797
1535253224996068,-0.169434,-0.997559,0.211914
1535253225011579,-0.193359,-0.986816,0.206543
1535253225030629,-0.222168,-0.986328,0.212891
1535253225053189,-0.222656,-0.984375,0.213867
1535253225071238,-0.213379,-0.967285,0.219238
1535253225090790,-0.25,-0.972168,0.230469
1535253225113351,-0.288574,-0.969238,0.235352
1535253225130896,-0.294434,-0.940918,0.231445
1535253225150950,-0.307129,-0.938477,0.228516
1535253225173008,-0.336426,-0.946289,0.229492
1535253225191056,-0.350098,-0.930664,0.243652
1535253225210725,-0.361816,-0.920898,0.234375
1535253225240753,-0.374023,-0.914063,0.249023
1535253225251217,-0.382324,-0.904785,0.241699
1535253225270773,-0.384277,-0.875977,0.227051
1535253225293328,-0.397949,-0.870117,0.229004
1535253225310875,-0.421875,-0.884277,0.234863
1535253225331931,-0.442871,-0.875977,0.234375
1535253225355995,-0.448242,-0.85791,0.22168
1535253225371081,-0.460449,-0.833496,0.224609
1535253225392093,-0.48584,-0.831055,0.234863
1535253225413147,-0.51123,-0.831543,0.240723
1535253225431195,-0.521973,-0.820801,0.222168
1535253225452252,-0.543457,-0.818359,0.23291
1535253225473307,-0.55127,-0.807617,0.234863
1535253225490854,-0.567871,-0.787598,0.21875
1535253225517929,-0.569824,-0.765137,0.228027
1535253225532966,-0.595703,-0.796387,0.233887
1535253225566059,-0.608398,-0.785645,0.231934
1535253225572070,-0.619629,-0.76709,0.223633
1535253225593125,-0.629883,-0.754395,0.227539
1535253225611227,-0.649902,-0.748047,0.225098
1535253225631280,-0.648438,-0.729004,0.217773
1535253225654293,-0.666504,-0.719238,0.218262
1535253225670834,-0.67041,-0.729004,0.20752
1535253225692898,-0.678711,-0.709961,0.215332
1535253225713948,-0.684082,-0.695313,0.217285
1535253225730516,-0.707031,-0.669922,0.210938
1535253225753107,-0.739258,-0.671875,0.213867
1535253225773606,-0.743652,-0.669434,0.217773
1535253225790205,-0.744629,-0.647461,0.219238
1535253225820357,-0.763184,-0.620605,0.223145
1535253225833821,-0.770996,-0.591797,0.208008
1535253225850311,-0.777832,-0.589844,0.208984
1535253225872921,-0.790527,-0.59375,0.22168
1535253225901445,-0.789551,-0.573242,0.224609
1535253225910470,-0.782715,-0.54541,0.207031
1535253225933071,-0.797363,-0.535645,0.200684
1535253225953624,-0.827637,-0.545898,0.213379
1535253225970672,-0.835449,-0.549805,0.214844
1535253225992729,-0.824707,-0.519043,0.207031
1535253226013812,-0.834473,-0.513184,0.200684
1535253226030331,-0.830078,-0.510254,0.206055
1535253226052889,-0.842773,-0.515137,0.210938
1535253226073946,-0.86377,-0.515137,0.20752
1535253226090491,-0.85498,-0.480957,0.201172
1535253226119065,-0.859863,-0.450195,0.209961
1535253226135181,-0.886719,-0.453125,0.217285
1535253226157673,-0.88916,-0.454102,0.211914
1535253226173712,-0.881348,-0.453125,0.20166
1535253226193764,-0.884766,-0.421387,0.211426
1535253226210307,-0.903809,-0.399414,0.220703
1535253226232923,-0.888184,-0.402344,0.222168
1535253226253977,-0.889648,-0.416992,0.221191
1535253226270469,-0.896973,-0.402344,0.219727
1535253226293059,-0.911133,-0.382813,0.213867
1535253226314112,-0.910156,-0.36377,0.213379
1535253226330128,-0.904785,-0.376465,0.212891
1535253226352687,-0.900879,-0.379395,0.207031
1535253226373747,-0.912598,-0.344238,0.206055
1535253226397983,-0.931152,-0.316895,0.210449
1535253226412849,-0.931641,-0.332031,0.213867
1535253226433944,-0.909668,-0.32666,0.209961
1535253226449569,-0.920898,-0.310059,0.22168
1535253226480528,-0.930664,-0.291016,0.228027
1535253226494069,-0.918945,-0.284668,0.229492
1535253226509605,-0.917969,-0.279785,0.220703
1535253226532672,-0.925781,-0.273438,0.220215
1535253226554224,-0.917969,-0.258789,0.238281
1535253226576282,-0.927734,-0.257813,0.234375
1535253226600347,-0.938965,-0.254883,0.233398
1535253226613928,-0.932129,-0.272461,0.235352
1535253226630928,-0.934082,-0.258789,0.245605
1535253226653491,-0.941406,-0.25293,0.236816
1535253226675560,-0.924805,-0.279297,0.223145
1535253226689583,-0.92041,-0.297363,0.238281
1535253226712648,-0.92334,-0.29541,0.254883
1535253226735207,-0.914063,-0.298828,0.231445
1535253226756261,-0.902832,-0.328125,0.227051
1535253226778866,-0.920898,-0.336426,0.228027
1535253226795366,-0.903809,-0.339844,0.23291
1535253226816466,-0.914551,-0.344238,0.239746
1535253226832966,-0.906738,-0.361816,0.222168
1535253226863058,-0.899902,-0.412109,0.221191
1535253226876585,-0.891602,-0.416992,0.22998
1535253226900145,-0.880859,-0.428711,0.229492
1535253226915185,-0.881836,-0.462402,0.226074
1535253226936242,-0.889648,-0.454102,0.228027
1535253226952787,-0.881836,-0.452148,0.223633
1535253226975358,-0.858398,-0.491699,0.225098
1535253226997907,-0.85498,-0.503418,0.224609
1535253227012945,-0.839355,-0.509766,0.213379
1535253227035505,-0.808105,-0.505859,0.210938
1535253227064124,-0.787109,-0.560059,0.222656
1535253227072664,-0.77002,-0.567871,0.219238
1535253227095312,-0.77832,-0.57666,0.211914
1535253227116381,-0.772461,-0.577637,0.226074
1535253227132763,-0.749512,-0.586914,0.236328
1535253227155324,-0.739746,-0.618164,0.227539
1535253227176379,-0.737305,-0.631348,0.228516
1535253227206488,-0.732422,-0.650879,0.246582
1535253227215497,-0.730957,-0.658203,0.239258
1535253227236572,-0.714844,-0.655762,0.233887
1535253227252581,-0.70166,-0.679688,0.23877
1535253227275144,-0.699707,-0.687988,0.243164
1535253227296199,-0.6875,-0.714355,0.251953
1535253227312741,-0.668945,-0.736816,0.239746
1535253227335324,-0.646484,-0.725586,0.25293
1535253227356357,-0.641113,-0.736328,0.254395
1535253227372401,-0.628418,-0.750488,0.249512
1535253227395467,-0.609375,-0.754395,0.251465
1535253227416518,-0.583496,-0.76416,0.243164
1535253227432063,-0.577637,-0.775391,0.242676
1535253227455120,-0.549805,-0.800781,0.253906
1535253227483735,-0.553223,-0.799316,0.244629
1535253227506260,-0.536133,-0.801758,0.257324
1535253227515282,-0.520996,-0.833984,0.25
1535253227536380,-0.508789,-0.829102,0.250488
1535253227560400,-0.496094,-0.831543,0.250488
1535253227575439,-0.479492,-0.850098,0.248047
1535253227598000,-0.475098,-0.865234,0.257324
1535253227612042,-0.468262,-0.872559,0.27002
1535253227642622,-0.445313,-0.865234,0.260254
1535253227657660,-0.43457,-0.868164,0.266113
1535253227672198,-0.425781,-0.879883,0.266602
1535253227695325,-0.414551,-0.898438,0.260742
1535253227717824,-0.394043,-0.887695,0.272461
1535253227738918,-0.366211,-0.896484,0.256836
1535253227754956,-0.353516,-0.907715,0.265625
1535253227793556,-0.34082,-0.905273,0.270996
1535253227799073,-0.325684,-0.900879,0.26123
1535253227815115,-0.304688,-0.923828,0.259766
1535253227837707,-0.296387,-0.936523,0.259277
1535253227858817,-0.290527,-0.935547,0.262207
1535253227875277,-0.283691,-0.927246,0.265137
1535253227898102,-0.258789,-0.930176,0.248535
1535253227918902,-0.246582,-0.93457,0.249512
1535253227935443,-0.228516,-0.943848,0.252441
1535253227957996,-0.216309,-0.96582,0.259277
1535253227980556,-0.216309,-0.957031,0.260254
1535253227995095,-0.200195,-0.946289,0.266113
1535253228017654,-0.185059,-0.944336,0.250488
1535253228039212,-0.180176,-0.975098,0.258789
1535253228061305,-0.171387,-0.993164,0.26416
1535253228077862,-0.170898,-0.972168,0.262695
1535253228098906,-0.149902,-0.943359,0.262695
1535253228114915,-0.129883,-0.963867,0.255371
1535253228137978,-0.129395,-0.983887,0.256348
1535253228159032,-0.112793,-0.96875,0.257324
1535253228175577,-0.102051,-0.968262,0.263672
1535253228198137,-0.0932617,-0.96875,0.253418
1535253228219194,-0.0859375,-0.984375,0.256348
1535253228235310,-0.0766602,-0.976074,0.26123
1535253228257798,-0.0688477,-0.977539,0.257813
1535253228278848,-0.0493164,-0.965332,0.250488
1535253228294891,-0.0351563,-0.967773,0.251953
1535253228317958,-0.0283203,-0.977051,0.258789
1535253228340515,-0.0107422,-0.978027,0.252441
1535253228354806,-0.00390625,-0.970703,0.250488
1535253228378152,-0.00976563,-0.983887,0.259766
1535253228398668,0.000488281,-0.977539,0.26123
1535253228414714,0.0244141,-0.980469,0.254395
1535253228437772,0.0288086,-0.974121,0.256836
1535253228458901,0.0375977,-0.970703,0.251465
1535253228474871,0.0644531,-0.971191,0.245605
1535253228497936,0.0761719,-0.974609,0.248047
1535253228519105,0.0703125,-0.977539,0.244141
1535253228534546,0.0834961,-0.973633,0.251465
1535253228557918,0.0859375,-0.968262,0.258789
1535253228580687,0.0981445,-0.966797,0.249023
1535253228594707,0.104492,-0.977539,0.246094
1535253228618269,0.10498,-0.986816,0.249023
1535253228640328,0.114258,-0.986328,0.248047
1535253228661454,0.124023,-0.97998,0.253906
1535253228678033,0.128418,-0.974609,0.244629
1535253228700490,0.131836,-0.979492,0.246094
1535253228714526,0.141113,-0.975586,0.24707
1535253228738132,0.143066,-0.981934,0.237793
1535253228760162,0.154785,-0.966797,0.24707
1535253228774720,0.150391,-0.974609,0.246582
1535253228797746,0.160645,-0.968262,0.240234
1535253228820306,0.15625,-0.953613,0.229492
1535253228834847,0.165039,-0.970215,0.23877
1535253228857930,0.165039,-0.994141,0.245117
1535253228880579,0.163574,-0.973145,0.236816
1535253228894580,0.176758,-0.961914,0.219727
1535253228918163,0.183105,-0.968262,0.229004
1535253228940227,0.185547,-0.975098,0.237305
1535253228954817,0.188477,-0.970215,0.225098
1535253228977827,0.191895,-0.960449,0.227539
1535253229000387,0.193848,-0.975098,0.227051
1535253229021558,0.197266,-0.957031,0.22168
1535253229037987,0.206055,-0.965332,0.217285
1535253229060572,0.199219,-0.973633,0.226563
1535253229081642,0.19873,-0.992676,0.231934
1535253229097649,0.193359,-0.98584,0.238281
1535253229120705,0.19043,-0.989746,0.243652
1535253229148884,0.20459,-0.974609,0.246094
1535253229157803,0.208496,-0.97168,0.235352
1535253229180404,0.188965,-0.99707,0.249512
1535253229201422,0.178711,-1.0083,0.262695
1535253229217479,0.180176,-0.990234,0.276367
1535253229240527,0.191406,-0.975098,0.268066
1535253229261581,0.213379,-0.966309,0.266113
1535253229277127,0.220703,-0.916992,0.253418
1535253229300186,0.215332,-0.919922,0.288574
1535253229321742,0.232422,-0.942871,0.317871
1535253229337789,0.248047,-0.950684,0.34375
1535253229360441,0.301758,-0.883301,0.367676
1535253229381505,0.270996,-0.867188,0.446289
1535253229403959,0.217285,-0.980957,0.54834
1535253229420504,0.236816,-0.946777,0.57373
1535253229449082,0.29834,-0.845215,0.60791
1535253229457111,0.288574,-0.72998,0.661621
1535253229480515,0.114746,-0.706055,0.686523
1535253229502724,0.0444336,-0.699707,0.727051
1535253229523881,0.117188,-0.640137,0.755859
1535253229540321,0.136719,-0.57373,0.729492
1535253229562884,0.128906,-0.566895,0.701172
1535253229584060,0.081543,-0.515137,0.654785
1535253229600483,0.0361328,-0.509277,0.675293
1535253229623042,0.0209961,-0.52002,0.666504
1535253229644098,-0.0214844,-0.523438,0.6875
1535253229660140,-0.267578,-0.551758,0.706055
1535253229689224,-0.445801,-0.652344,0.70166
1535253229706765,-0.383301,-0.608887,0.672852
1535253229728003,-0.155762,-0.625488,0.726074
1535253229742885,0.0380859,-0.538574,0.90918
1535253229764026,0.0878906,-0.472656,0.939453
1535253229780463,0.00683594,-0.414551,0.862305
1535253229803026,0.0424805,-0.370605,0.904297
1535253229824080,-0.0170898,-0.445313,1.03223
1535253229840328,-0.0537109,-0.52002,1.06348
1535253229862680,-0.00195313,-0.579102,1.02686
1535253229883738,0.103516,-0.487305,1.02246
1535253229900280,0.173828,-0.474121,1.00879
1535253229922864,0.214355,-0.423828,0.98291
1535253229943937,0.265137,-0.34082,0.955078
1535253229960442,0.3125,-0.30127,0.921875
1535253229983001,0.428223,-0.291016,0.896484
1535253230004158,0.503418,-0.268066,0.931152
1535253230020600,0.341309,-0.257324,0.922363
1535253230042658,0.31543,-0.306641,0.858887
1535253230063795,0.42334,-0.308594,0.805664
1535253230080483,0.424316,-0.331055,0.817871
1535253230102818,0.397949,-0.368164,0.905273
1535253230124040,0.410156,-0.281738,0.959473
1535253230140451,0.248535,-0.21875,0.945801
1535253230163060,0.198242,-0.245117,0.955566
1535253230184101,0.233887,-0.288574,0.939453
1535253230199784,0.206543,-0.337402,0.94873
1535253230222644,0.208008,-0.391113,0.97168
1535253230260243,0.217773,-0.317383,0.952148
1535253230262834,0.29248,-0.332031,0.943848
1535253230282797,0.349121,-0.242676,0.916016
1535253230304105,0.306152,-0.291992,0.931641
1535253230320436,0.320801,-0.331055,0.927734
1535253230342958,0.296387,-0.306152,0.911133
1535253230364015,0.268066,-0.293457,0.891602
1535253230380057,0.257324,-0.34668,0.905273
1535253230403121,0.278809,-0.384766,0.900879
1535253230425190,0.288086,-0.350098,0.908203
1535253230440222,0.267578,-0.308594,0.910156
1535253230462910,0.291992,-0.283203,0.906738
1535253230485336,0.318848,-0.325684,0.90625
1535253230500375,0.310059,-0.342285,0.910645
1535253230522977,0.290527,-0.319336,0.908203
1535253230545539,0.278809,-0.319336,0.90918
1535253230560126,0.29248,-0.338379,0.895996
1535253230582598,0.295898,-0.334473,0.902344
1535253230605158,0.30127,-0.324219,0.88916
1535253230619698,0.302246,-0.333984,0.882324
1535253230642755,0.299316,-0.351563,0.882324
1535253230665321,0.303711,-0.364746,0.889648
1535253230679877,0.311523,-0.344238,0.886719
1535253230702914,0.301758,-0.328613,0.900879
1535253230725477,0.295898,-0.338379,0.900879
1535253230739551,0.291016,-0.321289,0.906738
1535253230762574,0.283203,-0.33252,0.90625
1535253230792825,0.29834,-0.337891,0.895996
1535253230799674,0.30127,-0.342773,0.908203
1535253230822771,0.308105,-0.326172,0.902344
1535253230845297,0.296387,-0.323242,0.896973
1535253230859844,0.287598,-0.350586,0.888672
1535253230882896,0.30127,-0.362793,0.898438
1535253230905489,0.309082,-0.350586,0.893066
1535253230926512,0.297852,-0.325195,0.888184
1535253230943053,0.299805,-0.317383,0.886719
1535253230965615,0.297852,-0.334473,0.882324
1535253230986272,0.305664,-0.347168,0.890625
1535253231002785,0.295898,-0.334961,0.900391
1535253231025343,0.283691,-0.326172,0.897949
1535253231046401,0.288086,-0.317383,0.898926
1535253231070557,0.294922,-0.325684,0.892578
1535253231091611,0.311523,-0.336426,0.89209
1535253231114083,0.291504,-0.334961,0.90332
1535253231122603,0.281738,-0.334473,0.892578
1535253231145163,0.303223,-0.33252,0.899414
1535253231166267,0.299805,-0.332031,0.899414
1535253231183128,0.297363,-0.354492,0.898438
1535253231205456,0.302246,-0.334473,0.882813
1535253231226488,0.308594,-0.346191,0.892578
1535253231243152,0.308594,-0.324219,0.884766
1535253231265589,0.28418,-0.338867,0.882813
1535253231286647,0.297363,-0.362793,0.89502
1535253231302694,0.30957,-0.36377,0.875488
1535253231325249,0.3125,-0.322754,0.897461
1535253231346307,0.308105,-0.294434,0.905762
1535253231370393,0.290527,-0.312012,0.895508
1535253231392960,0.308594,-0.339355,0.89502
1535253231407972,0.310059,-0.334961,0.884277
1535253231423012,0.308105,-0.339355,0.895996
1535253231445419,0.303223,-0.316406,0.907227
1535253231468635,0.29834,-0.313965,0.899902
1535253231482676,0.300781,-0.327637,0.90918
1535253231505235,0.297363,-0.324707,0.90625
1535253231527788,0.286621,-0.321289,0.901367
1535253231542327,0.304688,-0.318848,0.901367
1535253231565388,0.303711,-0.334961,0.898926
1535253231587947,0.303223,-0.327637,0.907715
1535253231602260,0.30127,-0.306641,0.899414
1535253231625385,0.290039,-0.303223,0.898926
1535253231647606,0.311035,-0.313477,0.903809
1535253231670172,0.308594,-0.314453,0.905762
1535253231685385,0.3125,-0.299316,0.891602
1535253231707771,0.317383,-0.305176,0.896484
1535253231722307,0.296875,-0.304199,0.911621
1535253231745366,0.307129,-0.322754,0.913086
1535253231767926,0.302734,-0.302246,0.901855
1535253231782466,0.307617,-0.303711,0.901855
1535253231805527,0.308594,-0.297852,0.904297
1535253231828087,0.311035,-0.292969,0.905273
1535253231849143,0.304199,-0.302246,0.909668
1535253231865188,0.294434,-0.304199,0.914551
1535253231888109,0.322754,-0.294434,0.911133
1535253231908812,0.311035,-0.28125,0.912109
1535253231925351,0.312012,-0.296387,0.905273
1535253231947959,0.308594,-0.29541,0.902832
1535253231968960,0.319336,-0.297363,0.895996
1535253231985505,0.317383,-0.29541,0.891602
1535253232007688,0.320313,-0.284668,0.898926
1535253232013120,0.312988,-0.285156,0.899902
1535253232035903,0.319336,-0.29248,0.90625
1535253232050677,0.318359,-0.294434,0.896973
1535253232073237,0.31543,-0.286621,0.905762
1535253232095798,0.315918,-0.291992,0.910645
1535253232110838,0.318359,-0.288086,0.907227
1535253232133401,0.320801,-0.297363,0.906738
1535253232155456,0.317383,-0.291016,0.900879
1535253232170497,0.317871,-0.297852,0.896484
1535253232193057,0.319336,-0.300781,0.900879
1535253232215616,0.317871,-0.299316,0.907227
1535253232230658,0.319824,-0.297363,0.894043
1535253232253216,0.330078,-0.290039,0.896973
1535253232275854,0.32373,-0.29834,0.901855
1535253232290845,0.328125,-0.300293,0.898926
1535253232313441,0.316895,-0.288086,0.900391
1535253232335969,0.310547,-0.29541,0.905273
1535253232351022,0.319824,-0.300781,0.908203
1535253232373545,0.328125,-0.288086,0.902344
1535253232395597,0.32373,-0.295898,0.899414
1535253232410636,0.327148,-0.316406,0.896973
1535253232433197,0.300781,-0.297852,0.904297
1535253232458765,0.323242,-0.302734,0.907227
1535253232478328,0.333008,-0.304199,0.897949
1535253232493401,0.322754,-0.302734,0.89502
1535253232515925,0.318848,-0.29248,0.902344
1535253232530963,0.322754,-0.299316,0.902832
1535253232553516,0.32959,-0.306152,0.908203
1535253232576118,0.299805,-0.300781,0.890137
1535253232590726,0.321777,-0.291016,0.89209
1535253232613218,0.331055,-0.306641,0.903809
1535253232635736,0.325195,-0.307617,0.900879
1535253232650783,0.323242,-0.303223,0.900879
1535253232673438,0.31543,-0.293945,0.891602
1535253232695898,0.313965,-0.308594,0.897461
1535253232710941,0.333008,-0.304688,0.899414
1535253232733545,0.329102,-0.300293,0.900879
1535253232756064,0.31543,-0.296875,0.887695
1535253232778039,0.315918,-0.30127,0.89502
1535253232796085,0.326172,-0.309082,0.898926
1535253232818796,0.328125,-0.30127,0.894043
1535253232838189,0.31543,-0.296875,0.895508
1535253232853240,0.30957,-0.29541,0.897461
1535253232875891,0.319824,-0.300781,0.893555
1535253232890930,0.320313,-0.291016,0.902344
1535253232913391,0.322754,-0.293457,0.902344
1535253232935962,0.31543,-0.305664,0.90332
1535253232952000,0.322754,-0.301758,0.906738
1535253232973553,0.323242,-0.298828,0.897949
1535253233013157,0.316406,-0.293457,0.899414
1535253233015387,0.318848,-0.30127,0.897949
1535253233036720,0.314453,-0.302734,0.903809
1535253233055771,0.319824,-0.305664,0.909668
1535253233073817,0.316895,-0.29248,0.912109
1535253233095875,0.312988,-0.290527,0.901367
1535253233115930,0.3125,-0.299316,0.898438
1535253233132008,0.320801,-0.302734,0.900391
1535253233153543,0.316895,-0.29541,0.905273
1535253233175666,0.306152,-0.291992,0.900879
1535253233192142,0.316895,-0.290039,0.904297
1535253233213193,0.316895,-0.299805,0.907227
1535253233235753,0.311035,-0.288086,0.905273
1535253233253796,0.308105,-0.294922,0.90625
1535253233273349,0.319336,-0.282227,0.908691
1535253233296009,0.313477,-0.297852,0.896973
1535253233313458,0.314453,-0.302246,0.904297
1535253233333509,0.317383,-0.290527,0.907227
1535253233355567,0.312012,-0.28418,0.901367
1535253233373650,0.312012,-0.283203,0.909668
1535253233393206,0.314941,-0.298828,0.907715
1535253233415821,0.320801,-0.299805,0.902344
1535253233433811,0.312012,-0.290039,0.906738
1535253233453400,0.30957,-0.29541,0.904297
1535253233475918,0.3125,-0.294434,0.910645
1535253233493466,0.311523,-0.284668,0.911621
1535253233513518,0.313965,-0.291016,0.904297
1535253233535587,0.311523,-0.289063,0.906738
1535253233553626,0.314941,-0.297363,0.902344
1535253233573691,0.313965,-0.290039,0.90918
1535253233595745,0.308105,-0.289551,0.902832
1535253233614286,0.311035,-0.296387,0.905273
1535253233633458,0.308594,-0.296875,0.905762
1535253233655984,0.312988,-0.287109,0.908203
1535253233673946,0.310547,-0.288086,0.908691
1535253233694499,0.310059,-0.292969,0.903809
1535253233715572,0.310059,-0.287109,0.901367
1535253233733644,0.304688,-0.289063,0.912598
1535253233754674,0.313477,-0.299316,0.908203
1535253233775835,0.317383,-0.293945,0.907715
1535253233793902,0.302734,-0.291016,0.902832
1535253233813475,0.306641,-0.291504,0.904785
1535253233835899,0.313477,-0.285645,0.899902
1535253233853425,0.313965,-0.28418,0.912109
1535253233874984,0.309082,-0.290039,0.90918
1535253233896039,0.3125,-0.286621,0.905762
1535253233914087,0.3125,-0.300293,0.905762
1535253233934699,0.312012,-0.286621,0.911133
1535253233955705,0.314453,-0.288086,0.905762
1535253233973744,0.310059,-0.29248,0.905762
1535253233994800,0.309082,-0.294434,0.902832
1535253234015905,0.310059,-0.290527,0.90332
1535253234033579,0.307617,-0.287109,0.911621
1535253234054959,0.311035,-0.280273,0.913086
1535253234076016,0.306152,-0.288574,0.902344
1535253234094077,0.3125,-0.295898,0.912109
1535253234122141,0.307617,-0.290039,0.906738
1535253234135731,0.311035,-0.287109,0.904785
1535253234169529,0.306152,-0.285645,0.90918
1535253234174782,0.314453,-0.296387,0.904785
1535253234195923,0.309082,-0.282715,0.904785
1535253234213379,0.310547,-0.288086,0.90918
1535253234236443,0.303223,-0.288086,0.905762
1535253234255996,0.309082,-0.291504,0.902832
1535253234273543,0.3125,-0.296875,0.914063
1535253234296101,0.313477,-0.286133,0.907715
1535253234315957,0.307617,-0.283203,0.910156
1535253234333906,0.312988,-0.285645,0.908691
1535253234356266,0.310547,-0.290039,0.905273
1535253234375867,0.312012,-0.291992,0.904297
1535253234393859,0.310547,-0.286621,0.914551
1535253234422442,0.308594,-0.287109,0.912109
1535253234435974,0.310059,-0.286621,0.912109
1535253234459540,0.307129,-0.291504,0.905762
1535253234476087,0.310059,-0.290039,0.914063
1535253234495632,0.308594,-0.280762,0.910156
1535253234513701,0.305664,-0.279785,0.90625
1535253234536243,0.30957,-0.283203,0.904785
1535253234555792,0.310547,-0.304199,0.90625
1535253234573839,0.30127,-0.287598,0.913574
1535253234596006,0.311523,-0.282715,0.913086
1535253234615951,0.30957,-0.289063,0.905273
1535253234633498,0.311035,-0.288574,0.908691
1535253234662316,0.308594,-0.286133,0.904297
1535253234675614,0.306641,-0.287109,0.907715
1535253234699739,0.311523,-0.290039,0.907227
1535253234722242,0.311523,-0.286621,0.904785
1535253234735772,0.308594,-0.288574,0.915527
1535253234753818,0.308594,-0.290039,0.910156
1535253234776378,0.306152,-0.280762,0.908203
1535253234795931,0.312012,-0.28418,0.911133
1535253234813479,0.308594,-0.28418,0.905273
1535253234836081,0.311523,-0.288574,0.910156
1535253234857147,0.310547,-0.28418,0.912598
1535253234873710,0.303711,-0.289063,0.906738
1535253234896196,0.305664,-0.288086,0.908691
1535253234917255,0.311523,-0.287109,0.90918
1535253234933798,0.310547,-0.285156,0.907715
1535253234956356,0.310547,-0.291016,0.903809
1535253234977412,0.311035,-0.29541,0.904785
1535253234993526,0.313965,-0.293457,0.907715
1535253235016128,0.306152,-0.28125,0.904785
1535253235037079,0.306641,-0.286621,0.904785
1535253235053615,0.306152,-0.290039,0.907715
1535253235076256,0.309082,-0.286621,0.90918
1535253235096494,0.311523,-0.285156,0.909668
1535253235119075,0.305664,-0.292969,0.908691
1535253235135517,0.307617,-0.291016,0.909668
1535253235158076,0.308105,-0.294922,0.908691
1535253235172123,0.307617,-0.288086,0.909668
1535253235195175,0.308105,-0.289551,0.90332
1535253235217735,0.307617,-0.288574,0.909668
1535253235238902,0.310547,-0.282227,0.902344
1535253235255338,0.316895,-0.283691,0.906738
1535253235278066,0.312988,-0.297852,0.908203
1535253235299129,0.303223,-0.289063,0.911133
1535253235315170,0.309082,-0.285645,0.914551
1535253235338048,0.310059,-0.283203,0.903809
1535253235352363,0.313477,-0.288574,0.910645
1535253235375566,0.308594,-0.289063,0.900879
1535253235397688,0.307129,-0.29248,0.905273
1535253235412169,0.311035,-0.29541,0.903809
1535253235435507,0.311035,-0.285645,0.907227
1535253235457794,0.30957,-0.289551,0.908203
1535253235472347,0.312012,-0.28125,0.90625
1535253235495391,0.306641,-0.29541,0.906738
1535253235517949,0.309082,-0.291016,0.90918
1535253235532486,0.310547,-0.286621,0.912109
1535253235555547,0.310547,-0.284668,0.905273
1535253235578109,0.311523,-0.297363,0.909668
1535253235592146,0.309082,-0.28125,0.908203
1535253235615205,0.309082,-0.290527,0.902344
1535253235637765,0.305664,-0.289063,0.912109
1535253235658823,0.313477,-0.286621,0.913086
1535253235675377,0.30957,-0.28418,0.915039
1535253235697925,0.312988,-0.289063,0.907715
1535253235720487,0.309082,-0.291016,0.908691
1535253235741663,0.310547,-0.284668,0.907715
1535253235758152,0.303711,-0.293457,0.915527
1535253235779143,0.305176,-0.288086,0.907715
1535253235795187,0.312012,-0.28418,0.914063
1535253235817896,0.309082,-0.286621,0.911621
1535253235838800,0.307129,-0.29248,0.907227
1535253235855342,0.310547,-0.287109,0.905762
1535253235877903,0.302734,-0.290527,0.90625
1535253235898959,0.307617,-0.294922,0.913086
1535253235915503,0.306641,-0.282715,0.913574
1535253235938064,0.310059,-0.287598,0.904297
1535253235959120,0.30957,-0.29248,0.905762
1535253235975667,0.307617,-0.288086,0.905762
1535253235997726,0.310547,-0.289063,0.915039
1535253236019285,0.309082,-0.288086,0.90918
1535253236035324,0.309082,-0.285156,0.909668
1535253236057885,0.303223,-0.291504,0.908203
1535253236086464,0.309082,-0.289551,0.912109
1535253236095483,0.309082,-0.288574,0.90625
1535253236124058,0.312988,-0.284668,0.90918
1535253236147620,0.30957,-0.288574,0.90625
1535253236155140,0.301758,-0.287109,0.910156
1535253236177776,0.307129,-0.287109,0.90918
1535253236200358,0.308594,-0.287109,0.908691
1535253236214874,0.308594,-0.284668,0.911133
1535253236237865,0.310547,-0.291016,0.905762
1535253236260423,0.305664,-0.286133,0.897949
1535253236274458,0.31543,-0.294434,0.898438
1535253236298021,0.307129,-0.291504,0.907715
1535253236320079,0.302246,-0.287598,0.912598
1535253236334762,0.302246,-0.285645,0.912598
1535253236357719,0.304688,-0.289063,0.913086
1535253236380343,0.312012,-0.277344,0.910645
1535253236394790,0.314941,-0.285645,0.90625
1535253236417843,0.306152,-0.284668,0.913086
1535253236440414,0.291016,-0.287109,0.906738
1535253236454940,0.306152,-0.288086,0.906738
1535253236478116,0.318359,-0.291504,0.905273
1535253236500060,0.313965,-0.277344,0.90918
1535253236514597,0.313477,-0.285645,0.910156
1535253236537659,0.30127,-0.286133,0.911133
1535253236560303,0.298828,-0.289063,0.90625
1535253236574767,0.312012,-0.282227,0.90625
1535253236597819,0.315918,-0.28418,0.913086
1535253236620882,0.306152,-0.283691,0.912598
1535253236641539,0.308594,-0.282715,0.908203
1535253236658084,0.301758,-0.284668,0.911133
1535253236680544,0.306152,-0.288574,0.904785
1535253236701612,0.311523,-0.291016,0.907227
1535253236717636,0.312012,-0.290039,0.907227
1535253236740198,0.308105,-0.286133,0.91748
1535253236761357,0.301758,-0.282227,0.908203
1535253236777808,0.307617,-0.290039,0.908691
1535253236800363,0.312988,-0.290527,0.910645
1535253236821423,0.306152,-0.281738,0.908203
1535253236837960,0.310547,-0.287109,0.907227
1535253236860579,0.306152,-0.286133,0.899902
1535253236881636,0.30127,-0.290527,0.90918
1535253236897678,0.311035,-0.291992,0.901855
1535253236920238,0.305664,-0.282715,0.910645
1535253236941300,0.306641,-0.28418,0.915039
1535253236957898,0.306152,-0.291016,0.915039
1535253236980398,0.306152,-0.279785,0.913574
1535253237001462,0.307617,-0.289551,0.910156
1535253237018001,0.306152,-0.280273,0.912109
1535253237040558,0.307617,-0.291992,0.905273
1535253237063119,0.308105,-0.285156,0.905273
1535253237078160,0.305176,-0.280762,0.901367
1535253237100216,0.310547,-0.283203,0.913086
1535253237122777,0.305176,-0.278809,0.906738
1535253237137816,0.305664,-0.278809,0.904785
1535253237160746,0.308105,-0.282715,0.914063
1535253237182934,0.304688,-0.276855,0.914063
1535253237196973,0.30957,-0.285156,0.912598
1535253237221040,0.30957,-0.279785,0.90918
1535253237243098,0.30127,-0.288574,0.914551
1535253237257132,0.308105,-0.286621,0.910156
1535253237280195,0.316406,-0.280273,0.90625
1535253237302756,0.302734,-0.287109,0.916504
1535253237317293,0.305176,-0.283203,0.912109
1535253237340355,0.307129,-0.285645,0.911621
1535253237362915,0.304688,-0.279785,0.906738
1535253237377048,0.313965,-0.286621,0.900879
1535253237400514,0.311523,-0.286621,0.911133
1535253237423108,0.30957,-0.285156,0.910645
1535253237437122,0.29834,-0.285645,0.912109
1535253237460180,0.306152,-0.285645,0.913086
1535253237482733,0.309082,-0.280762,0.90918
1535253237497775,0.308105,-0.282227,0.906738
1535253237520336,0.30957,-0.27832,0.906738
1535253237542904,0.304199,-0.290039,0.911133
1535253237563948,0.309082,-0.285645,0.90918
1535253237580494,0.307617,-0.283691,0.909668
1535253237602705,0.302246,-0.285156,0.906738
1535253237624108,0.303711,-0.281738,0.906738
1535253237640150,0.30957,-0.283203,0.901855
1535253237662716,0.310547,-0.287109,0.90918
1535253237683843,0.305176,-0.284668,0.90918
1535253237700311,0.307129,-0.285645,0.90625
1535253237730400,0.30127,-0.286133,0.902344
1535253237743930,0.306152,-0.288086,0.898438
1535253237760493,0.30957,-0.291504,0.910645
1535253237783030,0.310547,-0.282715,0.913574
1535253237804087,0.303223,-0.283691,0.916016
1535253237820130,0.311523,-0.285645,0.913574
1535253237842699,0.311523,-0.289551,0.916016
1535253237864251,0.308105,-0.282715,0.911133
1535253237880294,0.304688,-0.28418,0.915039
1535253237902972,0.312988,-0.279785,0.914063
1535253237924027,0.307129,-0.288086,0.905762
1535253237940452,0.30957,-0.290527,0.901855
1535253237963012,0.308105,-0.291504,0.912598
1535253237984309,0.312012,-0.28125,0.912598
1535253238000145,0.308105,-0.283203,0.905762
1535253238029188,0.312988,-0.293457,0.908203
1535253238051250,0.30957,-0.291504,0.904297
1535253238060279,0.305176,-0.280762,0.906738
1535253238082830,0.306641,-0.280762,0.905273
1535253238105399,0.31543,-0.291016,0.913086
1535253238126551,0.30127,-0.290039,0.908203
1535253238142989,0.304199,-0.289063,0.906738
1535253238165628,0.311035,-0.292969,0.916992
1535253238179586,0.310547,-0.28418,0.91748
1535253238202946,0.308105,-0.290527,0.90918
1535253238225214,0.311035,-0.288574,0.905273
1535253238239749,0.315918,-0.292969,0.901855
1535253238262808,0.302246,-0.290527,0.90332
1535253238285370,0.306152,-0.287598,0.908203
1535253238308497,0.311523,-0.282227,0.915039
1535253238329089,0.308105,-0.281738,0.913574
1535253238345538,0.308594,-0.291016,0.911133
1535253238359577,0.307617,-0.29248,0.907227
1535253238383128,0.308105,-0.290039,0.905273
1535253238405187,0.308594,-0.28418,0.914551
1535253238419799,0.310547,-0.283691,0.909668
1535253238442987,0.305664,-0.287109,0.898926
1535253238465349,0.310547,-0.288086,0.908691
1535253238486504,0.307129,-0.290039,0.903809
1535253238502955,0.310547,-0.285156,0.907227
1535253238525507,0.314941,-0.284668,0.907227
1535253238546624,0.302246,-0.287109,0.911621
1535253238563109,0.308594,-0.286621,0.90918
1535253238585167,0.31543,-0.285156,0.911621
1535253238606273,0.314453,-0.288574,0.90918
1535253238622766,0.306641,-0.287598,0.900879
1535253238645325,0.30957,-0.28418,0.914063
1535253238666385,0.306641,-0.286133,0.906738
1535253238682931,0.307129,-0.291016,0.90918
1535253238705486,0.308594,-0.289551,0.908691
1535253238726550,0.312988,-0.291016,0.910645
1535253238743103,0.307129,-0.288086,0.907715
1535253238765657,0.299316,-0.282715,0.906738
1535253238786207,0.308105,-0.288086,0.904785
1535253238802790,0.317383,-0.289551,0.909668
1535253238825812,0.304688,-0.287598,0.912109
1535253238863407,0.303711,-0.288086,0.906738
1535253238866004,0.303711,-0.286621,0.911133
1535253238885968,0.310547,-0.290527,0.90625
1535253238906532,0.306152,-0.283203,0.90625
1535253238922570,0.304688,-0.287109,0.908203
1535253238945646,0.307617,-0.286133,0.909668
1535253238968304,0.307617,-0.286621,0.900879
1535253238983245,0.308594,-0.291992,0.908691
1535253239005301,0.305176,-0.283691,0.915527
1535253239027862,0.303223,-0.28418,0.913574
1535253239042901,0.304199,-0.287109,0.908691
1535253239065460,0.313477,-0.28418,0.908203
1535253239088020,0.313477,-0.283691,0.907227
1535253239102057,0.304688,-0.288086,0.913086
1535253239125118,0.306152,-0.288086,0.90918
1535253239147678,0.307617,-0.290039,0.902832
1535253239162220,0.306152,-0.286621,0.910156
1535253239185353,0.308105,-0.289551,0.911621
1535253239207840,0.30957,-0.285156,0.913574
1535253239222458,0.310059,-0.282715,0.907715
1535253239245444,0.307617,-0.286621,0.906738
1535253239267998,0.304688,-0.285645,0.910156
1535253239282036,0.303711,-0.277832,0.912109
1535253239305099,0.309082,-0.283691,0.907715
1535253239328029,0.306641,-0.290039,0.907715
1535253239342199,0.305176,-0.292969,0.913086
1535253239365533,0.306641,-0.284668,0.906738
1535253239387589,0.30957,-0.277344,0.911133
1535253239408795,0.302734,-0.290039,0.917969
1535253239425340,0.303223,-0.290039,0.912598
1535253239447898,0.306641,-0.293457,0.908203
1535253239468453,0.301758,-0.279297,0.899902
1535253239485501,0.307129,-0.282227,0.899902
1535253239508060,0.307129,-0.288086,0.907715
1535253239529124,0.302246,-0.287598,0.914063
1535253239545163,0.305664,-0.282715,0.912598
1535253239568220,0.305176,-0.280762,0.912109
1535253239589289,0.307617,-0.288574,0.911133
1535253239605329,0.302734,-0.281738,0.908203
1535253239628005,0.299805,-0.286133,0.909668
1535253239649058,0.311523,-0.281738,0.907227
1535253239671626,0.308105,-0.286133,0.907227
1535253239687663,0.303711,-0.290039,0.909668
1535253239708768,0.300293,-0.281738,0.910645
1535253239725402,0.308594,-0.283203,0.908691
1535253239747918,0.311035,-0.283691,0.910156
1535253239768883,0.312012,-0.289063,0.905762
1535253239785422,0.301758,-0.285645,0.909668
1535253239807986,0.308594,-0.290039,0.911621
1535253239829104,0.308105,-0.280762,0.904785
1535253239845584,0.303223,-0.280273,0.912109
1535253239867641,0.303711,-0.288574,0.907715
1535253239890200,0.309082,-0.288574,0.913086
1535253239905241,0.306152,-0.286621,0.904297
1535253239927806,0.306641,-0.283203,0.908203
1535253239950865,0.308594,-0.285645,0.918457
1535253239965404,0.304199,-0.286621,0.912109
1535253239993990,0.294434,-0.283203,0.90625
1535253240010522,0.307129,-0.285156,0.907227
1535253240024558,0.307129,-0.284668,0.90918
1535253240047624,0.311523,-0.282715,0.913574
1535253240070180,0.302246,-0.283203,0.913574
1535253240085022,0.304199,-0.286133,0.907227
1535253240107868,0.308594,-0.287109,0.914063
1535253240130341,0.311035,-0.28125,0.911621
1535253240144878,0.302246,-0.283691,0.912109
1535253240167939,0.305176,-0.287109,0.910645
1535253240190498,0.303711,-0.289551,0.908691
1535253240204537,0.307129,-0.284668,0.90625
1535253240227605,0.310059,-0.29248,0.914551
1535253240250661,0.305664,-0.285645,0.911621
1535253240271720,0.297363,-0.291504,0.914063
1535253240287758,0.306152,-0.28418,0.906738
1535253240310320,0.308105,-0.291016,0.914063
1535253240324857,0.305664,-0.288574,0.906738
1535253240347919,0.302734,-0.293945,0.913574
1535253240370478,0.307617,-0.277832,0.905273
1535253240391911,0.305664,-0.289063,0.906738
1535253240408082,0.304199,-0.286133,0.904297
1535253240430640,0.301758,-0.285156,0.909668
1535253240451707,0.304688,-0.288086,0.913086
1535253240468240,0.305176,-0.28418,0.915527
1535253240490297,0.307129,-0.285645,0.911133
1535253240511353,0.301758,-0.288574,0.910156
1535253240528398,0.306152,-0.291016,0.90332
1535253240550457,0.311523,-0.293945,0.907715
1535253240571193,0.30127,-0.284668,0.908203
1535253240587737,0.308105,-0.295898,0.907715
1535253240610298,0.313477,-0.284668,0.905273
1535253240631350,0.311035,-0.291504,0.910645
1535253240647899,0.305176,-0.287598,0.912109
1535253240670456,0.300781,-0.28418,0.914551
1535253240691564,0.310547,-0.285156,0.908203
1535253240707555,0.30957,-0.291016,0.912109
1535253240730115,0.306152,-0.291992,0.90918
1535253240751171,0.305664,-0.283203,0.904785
1535253240767946,0.311035,-0.287598,0.905762
1535253240790567,0.312012,-0.289063,0.90918
1535253240811402,0.307617,-0.285645,0.906738
1535253240827945,0.306152,-0.288086,0.911621
1535253240850448,0.310547,-0.291992,0.918457
1535253240872996,0.311523,-0.285645,0.915039
1535253240888037,0.308594,-0.276855,0.908203
1535253240910103,0.309082,-0.296387,0.90332
1535253240932655,0.309082,-0.294434,0.904297
1535253240947276,0.311523,-0.288574,0.910645
1535253240970254,0.307129,-0.290039,0.917969
1535253240992821,0.304199,-0.279785,0.914551
1535253241007353,0.312988,-0.285645,0.902344
1535253241030417,0.314453,-0.29248,0.900879
1535253241052670,0.308105,-0.289551,0.908203
1535253241067011,0.306641,-0.29248,0.904297
1535253241090573,0.306152,-0.285645,0.913086
1535253241113140,0.304199,-0.279785,0.906738
1535253241127174,0.306641,-0.282715,0.915527
1535253241150252,0.310059,-0.296875,0.908691
1535253241172922,0.307617,-0.285156,0.910156
1535253241187359,0.310547,-0.288574,0.905273
1535253241210411,0.299316,-0.286133,0.912109
1535253241232972,0.313477,-0.290527,0.914063
1535253241247015,0.310547,-0.287598,0.905273
1535253241270338,0.300781,-0.290527,0.912598
1535253241292639,0.311035,-0.287598,0.900879
1535253241307176,0.311035,-0.288086,0.908691
1535253241337750,0.308594,-0.288574,0.90918
1535253241358812,0.305664,-0.288574,0.914063
1535253241373847,0.306152,-0.284668,0.90625
1535253241390544,0.305664,-0.288086,0.908691
1535253241413058,0.309082,-0.287109,0.90918
1535253241434130,0.307617,-0.286133,0.912109
1535253241450574,0.30957,-0.291016,0.907715
1535253241472620,0.305176,-0.284668,0.901367
1535253241478245,0.307129,-0.293457,0.907715
1535253241500829,0.310059,-0.289063,0.915527
1535253241515835,0.302246,-0.285645,0.90625
1535253241538292,0.306152,-0.278809,0.908691
1535253241560847,0.308594,-0.279785,0.907715
1535253241575900,0.310547,-0.292969,0.910645
1535253241598511,0.306152,-0.288574,0.907715
1535253241629528,0.310547,-0.289063,0.911621
1535253241636170,0.304199,-0.287109,0.910645
1535253241661205,0.305664,-0.28418,0.907227
1535253241680668,0.30957,-0.283691,0.908691
1535253241695748,0.305176,-0.291504,0.90625
1535253241719768,0.311523,-0.287109,0.904297
1535253241740833,0.3125,-0.291504,0.907227
1535253241755869,0.307129,-0.287598,0.916504
1535253241778445,0.303711,-0.288086,0.908203
1535253241800985,0.305176,-0.284668,0.910645
1535253241815581,0.305176,-0.286621,0.914551
1535253241838586,0.306641,-0.285156,0.905273
1535253241860693,0.310547,-0.285645,0.912109
1535253241875808,0.303711,-0.281738,0.909668
1535253241898566,0.307617,-0.289063,0.904297
1535253241920925,0.302246,-0.291504,0.908691
1535253241938472,0.3125,-0.291992,0.90918
1535253241958528,0.302246,-0.279297,0.911133
1535253241981082,0.305664,-0.284668,0.91748
1535253241995630,0.305664,-0.286621,0.907227
1535253242018177,0.305664,-0.290039,0.910645
1535253242040737,0.304688,-0.279297,0.911133
1535253242055777,0.305176,-0.28418,0.907715
1535253242078335,0.305176,-0.290039,0.90918
1535253242100897,0.304199,-0.287109,0.90332
1535253242115433,0.307617,-0.282227,0.911133
1535253242138272,0.304688,-0.28125,0.910156
1535253242160557,0.308594,-0.285156,0.913086
1535253242175760,0.299316,-0.28418,0.914063
1535253242198390,0.311523,-0.289063,0.914063
1535253242228743,0.303711,-0.284668,0.905273
1535253242237260,0.30957,-0.288574,0.907715
1535253242258315,0.306641,-0.288574,0.908691
1535253242280893,0.301758,-0.287598,0.913086
1535253242295933,0.306152,-0.283203,0.911621
1535253242318494,0.302734,-0.284668,0.913086
1535253242340560,0.310547,-0.287109,0.909668
1535253242355645,0.310547,-0.286621,0.912598
1535253242378204,0.302734,-0.289551,0.906738
1535253242400829,0.306152,-0.288574,0.913086
1535253242417258,0.305664,-0.282715,0.916504
1535253242438381,0.310059,-0.288574,0.911621
1535253242460900,0.296875,-0.27832,0.915527
1535253242477418,0.303223,-0.27832,0.910156
1535253242505494,0.302734,-0.286133,0.918945
1535253242529063,0.306641,-0.286133,0.912109
1535253242537077,0.298828,-0.284668,0.912598
1535253242558189,0.305664,-0.286133,0.915527
1535253242580847,0.310059,-0.28125,0.901367
1535253242597336,0.306152,-0.285645,0.902344
1535253242618349,0.305176,-0.283203,0.912109
1535253242640906,0.306152,-0.290039,0.908203
1535253242656948,0.302734,-0.281738,0.910156
1535253242678506,0.304199,-0.283203,0.911621
1535253242701073,0.307129,-0.285645,0.910156
1535253242723218,0.301758,-0.282227,0.908691
1535253242738230,0.30127,-0.279297,0.914551
1535253242760823,0.299316,-0.279785,0.905762
1535253242778807,0.30957,-0.287109,0.912109
1535253242798396,0.305664,-0.279785,0.907227
1535253242820889,0.307617,-0.286621,0.90625
1535253242838600,0.297363,-0.288574,0.911133
1535253242858486,0.309082,-0.283203,0.908691
1535253242880544,0.309082,-0.281738,0.902832
1535253242898658,0.305664,-0.288574,0.914063
1535253242918147,0.297852,-0.278809,0.912598
1535253242940705,0.311035,-0.280762,0.910645
1535253242958751,0.314941,-0.287598,0.908691
1535253242978416,0.303223,-0.282715,0.913086
1535253243002382,0.297852,-0.286133,0.913574
1535253243018913,0.308594,-0.281738,0.910156
1535253243038465,0.305664,-0.286621,0.910156
1535253243063619,0.314453,-0.283691,0.905273
1535253243078571,0.311035,-0.281738,0.914551
1535253243098132,0.297852,-0.281738,0.908203
1535253243120727,0.305176,-0.289551,0.90918
1535253243138731,0.307617,-0.284668,0.907715
1535253243158289,0.307129,-0.282715,0.920898
1535253243181024,0.297363,-0.276367,0.914063
1535253243198893,0.305176,-0.290527,0.907715
1535253243218451,0.309082,-0.290527,0.90625
1535253243241003,0.304688,-0.286621,0.906738
1535253243258613,0.304688,-0.279297,0.908691
1535253243278237,0.299805,-0.281738,0.92041
1535253243300669,0.294434,-0.280762,0.913574
1535253243318827,0.314453,-0.289551,0.907227
1535253243339782,0.308105,-0.283203,0.895996
1535253243360918,0.314453,-0.295898,0.915039
1535253243378369,0.28418,-0.271484,0.904297
1535253243399926,0.320801,-0.297363,0.920898
1535253243420983,0.283203,-0.274414,0.899902
1535253243438531,0.327637,-0.28418,0.922363
1535253243459598,0.288086,-0.270508,0.891602
1535253243480641,0.332031,-0.314453,0.921875
1535253243498689,0.268555,-0.276367,0.914063
1535253243521250,0.335938,-0.303711,0.942383
1535253243540800,0.275391,-0.257813,0.929199
1535253243558848,0.309082,-0.277832,0.949707
1535253243579403,0.318359,-0.274414,0.907715
1535253243600493,0.328125,-0.286133,0.911621
1535253243618545,0.315918,-0.29541,0.895508
1535253243639604,0.285156,-0.275879,0.894531
1535253243660741,0.327148,-0.311035,0.915039
1535253243678668,0.264648,-0.270996,0.918945
1535253243708748,0.325684,-0.286133,0.921875
1535253243720900,0.316895,-0.280273,0.916016
1535253243738827,0.307617,-0.287109,0.90918
1535253243761387,0.303711,-0.285156,0.895508
1535253243780938,0.322754,-0.299316,0.910645
1535253243798539,0.288086,-0.27832,0.905273
1535253243821052,0.316406,-0.287598,0.913086
1535253243840601,0.301758,-0.28125,0.901855
1535253243859148,0.321289,-0.289551,0.915527
1535253243881709,0.293945,-0.272949,0.898438
1535253243900763,0.321289,-0.299805,0.911133
1535253243918812,0.290527,-0.275879,0.900879
1535253243940865,0.317871,-0.291504,0.916016
1535253243960918,0.304688,-0.286133,0.905762
1535253243978517,0.308594,-0.291504,0.911621
1535253244001027,0.302246,-0.278809,0.901367
1535253244020675,0.311523,-0.293945,0.911133
1535253244038627,0.305664,-0.295898,0.902344
1535253244061186,0.298828,-0.281738,0.907715
1535253244080783,0.313477,-0.290527,0.911133
1535253244098787,0.305176,-0.281738,0.912109
1535253244121347,0.307617,-0.291504,0.910156
1535253244140898,0.297852,-0.28418,0.905273
1535253244158946,0.312988,-0.294434,0.910645
1535253244181004,0.29834,-0.282715,0.906738
1535253244200623,0.311523,-0.290039,0.903809
1535253244218609,0.308594,-0.294434,0.90625
1535253244245678,0.309082,-0.287109,0.911133
1535253244262223,0.299805,-0.282227,0.910156
1535253244278765,0.311523,-0.29541,0.913574
1535253244301343,0.307129,-0.279297,0.909668
1535253244322380,0.315918,-0.283691,0.912598
1535253244338427,0.299316,-0.283203,0.90332
1535253244361073,0.305176,-0.296875,0.910645
1535253244382038,0.299805,-0.281738,0.904785
1535253244398582,0.3125,-0.293945,0.912109
1535253244421149,0.302246,-0.277832,0.902832
1535253244442199,0.317871,-0.288086,0.917969
1535253244458751,0.30127,-0.28418,0.901855
1535253244481348,0.310547,-0.291016,0.911133
1535253244502361,0.305176,-0.290527,0.902832
1535253244517432,0.306152,-0.285645,0.915527
1535253244540459,0.303711,-0.287598,0.913574
1535253244561557,0.303711,-0.286133,0.909668
1535253244584076,0.3125,-0.289551,0.907715
1535253244600122,0.299805,-0.282227,0.909668
1535253244622688,0.3125,-0.291504,0.908691
1535253244643834,0.296387,-0.281738,0.908691
1535253244667808,0.310547,-0.293457,0.905273
1535253244690359,0.300781,-0.288086,0.903809
1535253244703898,0.319336,-0.297363,0.903809
1535253244720451,0.298828,-0.288086,0.90332
1535253244743000,0.302246,-0.280762,0.909668
1535253244757037,0.306152,-0.283203,0.914063
1535253244780601,0.313477,-0.28418,0.914551
1535253244802860,0.306152,-0.283203,0.904297
1535253244817398,0.303223,-0.288086,0.907715
1535253244840457,0.299805,-0.288574,0.90625
1535253244863524,0.305664,-0.289063,0.914063
1535253244877058,0.306152,-0.282715,0.904297
1535253244900620,0.308594,-0.287109,0.905273
1535253244923179,0.305176,-0.284668,0.914063
1535253244937231,0.308594,-0.293945,0.905273
1535253244960280,0.299805,-0.28125,0.913086
1535253244982838,0.306641,-0.285645,0.919922
1535253244997376,0.304199,-0.285645,0.90918
1535253245020440,0.303711,-0.287109,0.910156
1535253245042997,0.303711,-0.289063,0.910156
1535253245057034,0.302246,-0.286621,0.913086
1535253245080544,0.308594,-0.291016,0.907227
1535253245102662,0.301758,-0.285156,0.916016
1535253245124217,0.306152,-0.289063,0.904785
1535253245140386,0.29541,-0.288086,0.904785
1535253245162819,0.306152,-0.291992,0.905762
1535253245183989,0.30957,-0.29248,0.908203
1535253245200416,0.308594,-0.287598,0.910156
1535253245222978,0.30127,-0.285645,0.910645
1535253245244073,0.299805,-0.281738,0.916016
1535253245266600,0.302246,-0.28418,0.914063
1535253245282642,0.303711,-0.286621,0.912598
1535253245305205,0.305664,-0.284668,0.912109
1535253245320378,0.306641,-0.286133,0.907227
1535253245342796,0.300781,-0.283691,0.907227
1535253245363851,0.305176,-0.287109,0.910156
1535253245380396,0.304688,-0.290527,0.910645
1535253245402956,0.307129,-0.288086,0.914063
1535253245424018,0.299316,-0.285645,0.910156
1535253245440556,0.307617,-0.281738,0.90918
1535253245463116,0.306641,-0.283691,0.909668
1535253245484180,0.304688,-0.285156,0.907227
1535253245500229,0.305176,-0.289063,0.907227
1535253245523279,0.300293,-0.284668,0.907227
1535253245543839,0.303223,-0.288574,0.921875
1535253245559873,0.304688,-0.282715,0.915039
1535253245582937,0.302734,-0.279297,0.912598
1535253245605511,0.306152,-0.285156,0.911133
1535253245620536,0.308105,-0.289063,0.910645
1535253245643178,0.302246,-0.288574,0.911133
1535253245665239,0.305664,-0.284668,0.911133
1535253245680277,0.301758,-0.279297,0.910156
1535253245702839,0.302246,-0.288574,0.909668
1535253245725475,0.304688,-0.289063,0.908203
1535253245739939,0.305664,-0.286621,0.914551
1535253245763079,0.305176,-0.280762,0.916992
1535253245791640,0.302246,-0.293945,0.908691
1535253245799668,0.304688,-0.290039,0.906738
1535253245823234,0.306152,-0.285156,0.907227
1535253245845291,0.300781,-0.280273,0.911133
1535253245859822,0.303223,-0.281738,0.911133
1535253245883485,0.304688,-0.290527,0.914551
1535253245905443,0.308105,-0.282715,0.906738
1535253245919480,0.303223,-0.283203,0.906738
1535253245942542,0.305176,-0.287598,0.913574
1535253245965622,0.300781,-0.289063,0.904297
1535253245979825,0.305664,-0.28418,0.915527
1535253246003204,0.307129,-0.28418,0.915039
1535253246025448,0.299316,-0.283691,0.907227
1535253246046327,0.303711,-0.283203,0.902832
1535253246062977,0.305176,-0.286621,0.913574
1535253246085542,0.306641,-0.290527,0.904785
1535253246106600,0.302246,-0.283203,0.912598
1535253246122642,0.297363,-0.277344,0.915527
1535253246145192,0.29834,-0.275879,0.90918
1535253246166796,0.307129,-0.284668,0.910156
1535253246182794,0.303223,-0.283691,0.910645
1535253246205359,0.306152,-0.287598,0.907715
1535253246226409,0.30127,-0.287598,0.90918
1535253246243050,0.301758,-0.283691,0.913086
1535253246265511,0.302246,-0.282715,0.914063
1535253246286592,0.306641,-0.286621,0.913086
1535253246302637,0.303711,-0.282715,0.912109
1535253246331216,0.30127,-0.286621,0.912109
1535253246346753,0.301758,-0.288574,0.912598
1535253246362795,0.304688,-0.282227,0.910156
1535253246385360,0.30957,-0.285156,0.913086
1535253246406416,0.302734,-0.29248,0.904297
1535253246422955,0.302734,-0.287598,0.913086
1535253246445516,0.303223,-0.287109,0.904785
1535253246466580,0.30127,-0.285645,0.908691
1535253246482614,0.30957,-0.28418,0.902344
1535253246505174,0.305664,-0.289551,0.90332
1535253246527736,0.304199,-0.289551,0.912109
1535253246542773,0.300293,-0.283203,0.911621
1535253246565390,0.306152,-0.288574,0.913574
1535253246587962,0.304199,-0.277832,0.911621
1535253246610455,0.30127,-0.28125,0.909668
1535253246625493,0.307129,-0.290039,0.90918
1535253246647581,0.307617,-0.289063,0.908203
1535253246662110,0.306152,-0.280762,0.907715
1535253246685388,0.30127,-0.286133,0.911621
1535253246707731,0.302734,-0.288574,0.910156
1535253246722271,0.308594,-0.280273,0.908691
1535253246745330,0.308105,-0.286133,0.908203
1535253246767890,0.302734,-0.285156,0.905762
1535253246781931,0.30957,-0.293945,0.908691
1535253246805142,0.300293,-0.281738,0.911621
1535253246828080,0.306152,-0.286133,0.910156
1535253246842247,0.305176,-0.285645,0.913574
1535253246865189,0.300293,-0.285645,0.91748
1535253246887742,0.304688,-0.28418,0.911133
1535253246902355,0.306152,-0.289063,0.904785
1535253246931355,0.312988,-0.291504,0.90918
1535253246947899,0.307617,-0.289063,0.90918
1535253246962125,0.303223,-0.288086,0.90918
1535253246985195,0.306152,-0.288574,0.905762
1535253247007746,0.307617,-0.285645,0.916016
1535253247029305,0.305664,-0.286621,0.913574
1535253247045347,0.306152,-0.289063,0.911621
1535253247067907,0.300781,-0.290527,0.902832
1535253247088966,0.311523,-0.280273,0.904297
1535253247105506,0.311035,-0.281738,0.904785
1535253247128105,0.306641,-0.295898,0.904297
1535253247149124,0.315918,-0.296875,0.919922
1535253247165172,0.287598,-0.273438,0.903809
1535253247187724,0.322754,-0.293457,0.922852
1535253247210285,0.289063,-0.280762,0.907227
1535253247225329,0.325684,-0.303223,0.910645
1535253247247887,0.293945,-0.275879,0.895996
1535253247270445,0.321777,-0.301758,0.915039
1535253247285483,0.296875,-0.289551,0.908203
1535253247308050,0.295898,-0.286133,0.909668
1535253247329101,0.313477,-0.286133,0.910645
1535253247345149,0.302734,-0.289063,0.911133
1535253247368706,0.311035,-0.289551,0.907227
1535253247388873,0.313965,-0.286621,0.908203
1535253247405314,0.310547,-0.287598,0.914551
1535253247427864,0.302734,-0.29248,0.908203
1535253247450426,0.307617,-0.285156,0.897461
1535253247465478,0.305664,-0.295898,0.905273
1535253247488529,0.305176,-0.285645,0.903809
1535253247511589,0.319824,-0.288574,0.899414
1535253247525624,0.308105,-0.288574,0.905762
1535253247547684,0.296387,-0.285645,0.912109
1535253247570472,0.30127,-0.289063,0.907715
1535253247585282,0.305664,-0.285645,0.914063
1535253247607842,0.303711,-0.292969,0.914063
1535253247630469,0.306152,-0.274414,0.913086
1535253247644439,0.331055,-0.303711,0.902832
1535253247668005,0.291504,-0.276367,0.905762
1535253247690564,0.320313,-0.297852,0.905762
1535253247704634,0.301758,-0.291992,0.905762
1535253247727663,0.29541,-0.287598,0.913086
1535253247750293,0.294922,-0.283203,0.905273
1535253247764761,0.308105,-0.290527,0.907227
1535253247787921,0.31543,-0.285156,0.909668
1535253247810380,0.305664,-0.28418,0.914063
1535253247824418,0.302734,-0.286133,0.905273
1535253247847984,0.305176,-0.293457,0.909668
1535253247870054,0.305176,-0.282227,0.910645
1535253247884579,0.297363,-0.282715,0.915527
1535253247907640,0.303223,-0.285645,0.912109
1535253247931702,0.310547,-0.286133,0.911133
1535253247951255,0.31543,-0.289551,0.908203
1535253247967799,0.306641,-0.287109,0.907227
1535253247990364,0.296875,-0.283691,0.909668
1535253248011415,0.294922,-0.27832,0.916016
1535253248027959,0.300781,-0.284668,0.913574
1535253248050522,0.30957,-0.285156,0.907715
1535253248079098,0.307129,-0.286133,0.908203
1535253248088188,0.304688,-0.284668,0.902344
1535253248110681,0.308594,-0.286621,0.912598
1535253248131235,0.30127,-0.288086,0.905273
1535253248147782,0.309082,-0.29834,0.909668
1535253248170343,0.29541,-0.285645,0.906738
1535253248191394,0.306641,-0.288574,0.916016
1535253248207938,0.304688,-0.280273,0.914063
1535253248230512,0.313965,-0.282715,0.912109
1535253248251554,0.310059,-0.291992,0.90332
1535253248267728,0.300781,-0.293945,0.912109
1535253248297693,0.30127,-0.28418,0.912598
1535253248311220,0.300293,-0.279785,0.918457
1535253248327759,0.303223,-0.282715,0.912109
1535253248350325,0.310547,-0.282227,0.907715
1535253248371417,0.316895,-0.281738,0.905762
1535253248387418,0.302246,-0.284668,0.909668
1535253248410481,0.304688,-0.293945,0.913574
1535253248432546,0.296875,-0.29248,0.915039
1535253248447587,0.29834,-0.28125,0.914063
1535253248470637,0.30127,-0.275879,0.919922
1535253248494216,0.30957,-0.289063,0.908203
1535253248507747,0.30957,-0.286621,0.913086
1535253248530345,0.311523,-0.287598,0.902832
1535253248553405,0.299316,-0.287598,0.916504
1535253248567446,0.300781,-0.273926,0.911133
1535253248596520,0.296875,-0.282715,0.915527
1535253248612561,0.310059,-0.291016,0.910645
1535253248627200,0.299316,-0.280762,0.909668
1535253248650169,0.310059,-0.289551,0.909668
1535253248672728,0.307129,-0.29248,0.913086
1535253248687264,0.306152,-0.282227,0.914551
1535253248710341,0.299316,-0.279785,0.90918
1535253248732893,0.297363,-0.293457,0.911133
1535253248747432,0.304199,-0.286621,0.916992
1535253248770493,0.297852,-0.275391,0.905273
1535253248792555,0.308105,-0.280762,0.914063
1535253248807089,0.302246,-0.285645,0.906738
1535253248830151,0.304199,-0.281738,0.902832
1535253248852712,0.303711,-0.285645,0.908203
1535253248873769,0.296875,-0.288086,0.911621
1535253248890317,0.29834,-0.282715,0.91748
1535253248912877,0.299805,-0.279297,0.912598
1535253248933936,0.307129,-0.286133,0.908203
1535253248950471,0.310059,-0.289551,0.911621
1535253248973032,0.302734,-0.286133,0.911621
1535253248994163,0.303223,-0.28125,0.911621
1535253249010156,0.305664,-0.284668,0.908691
1535253249032719,0.299805,-0.290039,0.913574
1535253249053778,0.302734,-0.280762,0.910156
1535253249070523,0.305176,-0.279785,0.907715
1535253249092933,0.305664,-0.283691,0.908691
1535253249113936,0.305176,-0.289551,0.906738
1535253249130558,0.296875,-0.280273,0.915039
1535253249153037,0.29541,-0.28418,0.912109
1535253249174100,0.298828,-0.283691,0.915527
1535253249190527,0.307129,-0.289551,0.913086
1535253249212697,0.306641,-0.282715,0.913086
1535253249233756,0.302246,-0.286133,0.914063
1535253249256375,0.306641,-0.285645,0.916992
1535253249272862,0.305176,-0.28125,0.90918
1535253249294027,0.304688,-0.290527,0.910645
1535253249310462,0.298828,-0.283691,0.908691
1535253249333020,0.30127,-0.280273,0.915527
1535253249355576,0.306641,-0.285156,0.910645
1535253249370617,0.303223,-0.285645,0.912598
1535253249406330,0.308105,-0.283203,0.912598
1535253249415237,0.299805,-0.285156,0.910645
1535253249430276,0.303223,-0.287598,0.915039
1535253249452834,0.302734,-0.282227,0.914551
1535253249475433,0.302246,-0.283203,0.910156
1535253249489433,0.306152,-0.28125,0.915039
1535253249512570,0.302734,-0.286133,0.912109
1535253249535480,0.306152,-0.285645,0.906738
1535253249549590,0.314453,-0.296387,0.913574
1535253249573154,0.302246,-0.285156,0.912598
1535253249595224,0.293945,-0.280273,0.916504
1535253249609751,0.30127,-0.284668,0.914063
1535253249632813,0.306152,-0.282715,0.912109
1535253249655374,0.310547,-0.280762,0.908691
1535253249676431,0.305176,-0.287109,0.913086
1535253249692974,0.299316,-0.291016,0.909668
1535253249721706,0.297363,-0.282715,0.907227
1535253249729572,0.309082,-0.283691,0.90918
1535253249752635,0.306152,-0.28418,0.907715
1535253249775195,0.302734,-0.290527,0.910156
1535253249789809,0.30127,-0.284668,0.912109
1535253249812796,0.300781,-0.283203,0.912598
1535253249835354,0.307617,-0.278809,0.908691
1535253249856466,0.304688,-0.277832,0.908691
1535253249872952,0.30957,-0.290527,0.909668
1535253249895514,0.303711,-0.287109,0.909668
1535253249916568,0.305664,-0.290039,0.912598
1535253249932618,0.297363,-0.286621,0.910645
1535253249955176,0.303711,-0.285645,0.905273
1535253249983751,0.311523,-0.288086,0.905273
1535253249992782,0.306152,-0.284668,0.898926
1535253250015333,0.301758,-0.288086,0.911621
1535253250036386,0.302734,-0.280762,0.908691
1535253250052930,0.300293,-0.283203,0.916504
1535253250075415,0.307129,-0.284668,0.914551
1535253250096550,0.29834,-0.287598,0.910645
1535253250113147,0.307617,-0.286621,0.913086
1535253250135656,0.308105,-0.285156,0.902832
1535253250156213,0.304199,-0.285156,0.911133
1535253250172995,0.302246,-0.28125,0.906738
1535253250195315,0.301758,-0.290039,0.90918
1535253250216500,0.304688,-0.288574,0.90918
1535253250233414,0.303223,-0.285645,0.90918
1535253250261488,0.304199,-0.283203,0.911621
1535253250276528,0.305664,-0.286621,0.912598
1535253250293070,0.306152,-0.285156,0.913574
1535253250322650,0.306152,-0.283203,0.915527
1535253250337785,0.299805,-0.285645,0.916992
1535253250352739,0.304688,-0.284668,0.915527
1535253250375301,0.307129,-0.281738,0.902344
1535253250397849,0.310059,-0.283691,0.911621
1535253250412392,0.305176,-0.290527,0.909668
1535253250435464,0.299316,-0.285645,0.911621
1535253250457508,0.304199,-0.288086,0.911133
1535253250472048,0.302246,-0.283203,0.916016
1535253250495620,0.30127,-0.283691,0.908691
1535253250517669,0.302734,-0.288086,0.910156
1535253250538760,0.301758,-0.280273,0.905273
1535253250555311,0.305664,-0.280762,0.912598
1535253250577834,0.306152,-0.288574,0.910156
1535253250592366,0.302246,-0.287598,0.912109
1535253250615466,0.300781,-0.285156,0.911133
1535253250638030,0.302734,-0.280762,0.912598
1535253250652037,0.313965,-0.276855,0.904785
1535253250675086,0.307617,-0.28418,0.902344
1535253250697690,0.300781,-0.294434,0.911621
1535253250712379,0.299316,-0.294922,0.912109
1535253250735247,0.30127,-0.279297,0.916016
1535253250757809,0.300293,-0.275879,0.923828
1535253250772345,0.304199,-0.283203,0.909668
1535253250796196,0.298828,-0.288574,0.909668
1535253250817977,0.302734,-0.29541,0.903809
1535253250839048,0.305176,-0.288086,0.907715
1535253250855569,0.300293,-0.284668,0.912109
1535253250877756,0.298828,-0.283691,0.915039
1535253250898682,0.298828,-0.291016,0.90918
1535253250915227,0.302246,-0.285645,0.917969
1535253250937786,0.302734,-0.281738,0.904297
1535253250958872,0.303223,-0.287109,0.907715
1535253250965860,0.309082,-0.289063,0.908203
1535253250980401,0.301758,-0.290527,0.912109
1535253251002959,0.300293,-0.285156,0.919922
1535253251025584,0.303711,-0.284668,0.921387
1535253251040837,0.29834,-0.280273,0.913086
1535253251072147,0.305664,-0.285156,0.907227
1535253251094703,0.304199,-0.287598,0.90625
1535253251100716,0.304199,-0.291016,0.904297
1535253251123278,0.302246,-0.283203,0.913086
1535253251145839,0.302246,-0.282227,0.916504
1535253251160416,0.303711,-0.290527,0.917969
1535253251183440,0.303223,-0.281738,0.912598
1535253251206005,0.299805,-0.28418,0.910645
1535253251221044,0.307617,-0.280273,0.905273
1535253251243097,0.307129,-0.284668,0.909668
1535253251265660,0.300293,-0.288086,0.908691
1535253251281199,0.299805,-0.287598,0.913086
1535253251303259,0.30127,-0.280273,0.91748
1535253251325821,0.304199,-0.288574,0.911133
1535253251348380,0.302734,-0.282227,0.916504
1535253251370939,0.306641,-0.285156,0.907715
1535253251385978,0.302734,-0.291504,0.906738
1535253251401024,0.302734,-0.286133,0.905762
1535253251430597,0.30127,-0.288086,0.908203
1535253251445639,0.302734,-0.286621,0.90332
1535253251460780,0.309082,-0.289551,0.90918
1535253251483241,0.305176,-0.282227,0.912598
1535253251505922,0.301758,-0.289063,0.916992
1535253251520841,0.305664,-0.285156,0.905762
1535253251543397,0.303711,-0.282715,0.912109
1535253251565644,0.305664,-0.285645,0.916504
1535253251580494,0.303223,-0.291992,0.907227
1535253251603356,0.304688,-0.290039,0.908691
1535253251625621,0.308594,-0.287109,0.909668
1535253251648175,0.304688,-0.280762,0.912109
1535253251666260,0.304199,-0.283203,0.907715
1535253251685787,0.30127,-0.282227,0.909668
1535253251700844,0.307617,-0.282715,0.906738
1535253251723398,0.305176,-0.291504,0.905762
1535253251745958,0.304688,-0.287598,0.906738
1535253251761007,0.302246,-0.285156,0.904785
1535253251783647,0.305664,-0.286133,0.916504
1535253251805622,0.305176,-0.289063,0.90918
1535253251822178,0.305176,-0.281738,0.904297
1535253251843332,0.304688,-0.287109,0.907715
1535253251865782,0.305664,-0.29248,0.912598
1535253251882321,0.304199,-0.288086,0.912109
1535253251904883,0.302246,-0.283691,0.904785
1535253251925940,0.306152,-0.28125,0.909668
1535253251941983,0.307129,-0.286133,0.895996
1535253251963538,0.310547,-0.299316,0.907227
1535253251985596,0.304688,-0.290039,0.914063
1535253252002144,0.29541,-0.283691,0.91748
1535253252023198,0.296875,-0.279785,0.918457
1535253252045858,0.309082,-0.283691,0.912109
1535253252062311,0.308105,-0.290527,0.90332
1535253252083365,0.304688,-0.288574,0.909668
1535253252105936,0.297852,-0.28418,0.907227
1535253252122132,0.300293,-0.282715,0.911133
1535253252143182,0.304199,-0.284668,0.916992
1535253252165736,0.30127,-0.287109,0.910645
1535253252183782,0.305664,-0.289551,0.912109
1535253252206344,0.29834,-0.288574,0.912598
1535253252225930,0.299805,-0.283203,0.907715
1535253252243949,0.307129,-0.291992,0.909668
1535253252263498,0.300293,-0.287109,0.90332
1535253252285665,0.297363,-0.289063,0.910645
1535253252303608,0.300293,-0.286133,0.913574
1535253252323163,0.303223,-0.286133,0.912598
1535253252345715,0.308594,-0.285156,0.904297
1535253252363768,0.30127,-0.288574,0.906738
1535253252383313,0.297363,-0.291504,0.908691
1535253252405874,0.304688,-0.29248,0.913086
1535253252423421,0.302734,-0.284668,0.915527
1535253252442970,0.301758,-0.285645,0.911621
1535253252465688,0.302246,-0.283691,0.914063
1535253252484083,0.305664,-0.287598,0.909668
1535253252503132,0.299805,-0.289551,0.911621
1535253252525893,0.300781,-0.290039,0.905762
1535253252543900,0.299805,-0.289551,0.912598
1535253252563334,0.299805,-0.287109,0.910156
1535253252585856,0.303711,-0.291016,0.909668
1535253252603901,0.299805,-0.282227,0.912598
1535253252622952,0.299805,-0.286133,0.912598
1535253252645510,0.304199,-0.288086,0.910645
1535253252663632,0.303711,-0.289063,0.916504
1535253252683112,0.298828,-0.285645,0.911133
1535253252705676,0.294922,-0.287109,0.914551
1535253252723719,0.304199,-0.284668,0.916016
1535253252743295,0.300781,-0.287598,0.905273
1535253252765833,0.302246,-0.288086,0.907227
1535253252783379,0.301758,-0.291992,0.909668
1535253252804515,0.297852,-0.286621,0.913086
1535253252825490,0.302246,-0.285645,0.911621
1535253252843562,0.29834,-0.285645,0.912598
1535253252864601,0.299805,-0.282227,0.909668
1535253252885753,0.301758,-0.290039,0.912598
1535253252903864,0.304688,-0.292969,0.911133
1535253252924874,0.300781,-0.287109,0.913086
1535253252945903,0.296387,-0.290039,0.907227
1535253252963862,0.297852,-0.286621,0.915039
1535253252990932,0.295898,-0.283203,0.914551
1535253253005972,0.297363,-0.288086,0.915527
1535253253023520,0.304199,-0.286133,0.911133
1535253253044623,0.303711,-0.291016,0.911133
1535253253065653,0.298828,-0.283691,0.909668
1535253253083679,0.296387,-0.287598,0.909668
1535253253104736,0.300781,-0.28418,0.912109
1535253253125965,0.302246,-0.28125,0.914551
1535253253143838,0.301758,-0.282715,0.906738
1535253253165999,0.305176,-0.288086,0.906738
1535253253185950,0.299805,-0.287598,0.909668
1535253253203497,0.300293,-0.291016,0.904785
1535253253226142,0.305176,-0.288086,0.907227
1535253253245609,0.299316,-0.286621,0.911133
1535253253263803,0.304199,-0.290039,0.913086
1535253253292425,0.299805,-0.281738,0.915527
1535253253308776,0.301758,-0.290039,0.913574
1535253253323817,0.299805,-0.288086,0.913574
1535253253346377,0.305176,-0.285156,0.90918
1535253253365938,0.302734,-0.286621,0.907227
1535253253383822,0.300293,-0.288086,0.912598
1535253253406140,0.304199,-0.287109,0.907715
1535253253425629,0.300781,-0.288574,0.912598
1535253253443812,0.300293,-0.28418,0.911133
1535253253466196,0.300781,-0.286133,0.916016
1535253253485789,0.303711,-0.284668,0.910156
1535253253503867,0.30957,-0.289063,0.911621
1535253253526356,0.302246,-0.284668,0.909668
1535253253545908,0.303711,-0.291992,0.908203
1535253253568467,0.304199,-0.289063,0.904297
1535253253593534,0.30127,-0.287598,0.911133
1535253253605623,0.307129,-0.285156,0.913574
1535253253623615,0.301758,-0.28418,0.909668
1535253253653753,0.295898,-0.28418,0.917969
1535253253665728,0.299316,-0.283691,0.911133
1535253253683774,0.309082,-0.283691,0.916992
1535253253706334,0.299316,-0.283691,0.90332
1535253253727072,0.297852,-0.293457,0.908691
1535253253743487,0.297852,-0.296387,0.905273
1535253253766023,0.303223,-0.290039,0.911133
1535253253787057,0.300781,-0.286133,0.905273
1535253253803595,0.308594,-0.282715,0.911133
1535253253826654,0.29834,-0.284668,0.912598
1535253253847210,0.300781,-0.286133,0.912109
1535253253869769,0.303711,-0.291504,0.90918
1535253253885812,0.304199,-0.290527,0.915527
1535253253906868,0.301758,-0.286133,0.908203
1535253253923410,0.304199,-0.289551,0.914063
1535253253945972,0.303711,-0.289551,0.912109
1535253253967077,0.300293,-0.284668,0.913574
1535253253983570,0.302246,-0.287598,0.90918
1535253254006133,0.299805,-0.291992,0.911133
1535253254026736,0.309082,-0.29248,0.913086
1535253254042228,0.30127,-0.287598,0.90625
1535253254065288,0.29834,-0.287109,0.906738
1535253254087919,0.308594,-0.291016,0.90625
1535253254101957,0.308594,-0.289551,0.910156
1535253254125093,0.306641,-0.285156,0.911133
1535253254147783,0.298828,-0.293945,0.910156
1535253254169181,0.298828,-0.287109,0.912598
1535253254185208,0.306152,-0.290039,0.905273
1535253254207765,0.307617,-0.285156,0.912109
1535253254222372,0.303711,-0.290039,0.902832
1535253254245432,0.302246,-0.291992,0.907227
1535253254267991,0.306152,-0.286133,0.903809
1535253254282030,0.306641,-0.28418,0.910645
1535253254305090,0.305176,-0.289551,0.90918
1535253254327651,0.296875,-0.281738,0.912109
1535253254342187,0.30127,-0.286621,0.910156
1535253254365250,0.304688,-0.287598,0.90918
1535253254404482,0.306641,-0.286133,0.901367
1535253254408871,0.306641,-0.291992,0.902344
1535253254425424,0.307617,-0.291992,0.911621
1535253254447983,0.297852,-0.290039,0.916016
1535253254462006,0.303223,-0.283691,0.911621
1535253254485583,0.304688,-0.290527,0.908203
1535253254507630,0.302734,-0.29248,0.902344
1535253254522166,0.306152,-0.291504,0.910156
1535253254545329,0.307129,-0.290039,0.911621
1535253254567788,0.307617,-0.285645,0.905762
1535253254588960,0.307129,-0.289551,0.911133
1535253254605407,0.305664,-0.293945,0.910645
1535253254627953,0.303711,-0.286621,0.905273
1535253254649086,0.303711,-0.288574,0.904297
1535253254665568,0.310059,-0.293457,0.914063
1535253254687609,0.304199,-0.291992,0.912109
1535253254709166,0.304688,-0.286133,0.916504
1535253254725208,0.302734,-0.288574,0.912109
1535253254747806,0.300293,-0.29541,0.909668
1535253254768860,0.304199,-0.286133,0.906738
1535253254785407,0.30957,-0.280762,0.910645
1535253254807968,0.308594,-0.29541,0.908203
1535253254829060,0.307129,-0.290527,0.904785
1535253254845071,0.297852,-0.29248,0.913574
1535253254867632,0.305664,-0.290527,0.914063
1535253254888783,0.30957,-0.288086,0.916016
1535253254905361,0.307129,-0.289063,0.907715
1535253254927282,0.306641,-0.290527,0.901367
1535253254948882,0.303223,-0.293945,0.90625
1535253254965391,0.306641,-0.288574,0.909668
1535253254987944,0.308105,-0.284668,0.90918
1535253255009050,0.297852,-0.288574,0.912109
1535253255025545,0.303223,-0.287109,0.917969
1535253255047604,0.299316,-0.289551,0.909668
1535253255070163,0.306152,-0.286621,0.915039
1535253255085203,0.308594,-0.286133,0.905273
1535253255107766,0.306152,-0.29248,0.905273
1535253255130323,0.301758,-0.291992,0.910156
1535253255145364,0.300781,-0.292969,0.910645
1535253255167924,0.302246,-0.29248,0.90625
1535253255190486,0.309082,-0.28418,0.910156
1535253255204522,0.304688,-0.284668,0.910645
1535253255227589,0.302246,-0.29248,0.912109
1535253255256664,0.304199,-0.291016,0.905762
1535253255264689,0.306152,-0.288574,0.911621
1535253255287744,0.305176,-0.290039,0.911133
1535253255310307,0.303711,-0.288086,0.914551
1535253255324841,0.302734,-0.290039,0.912109
1535253255347903,0.304199,-0.289551,0.907715
1535253255370463,0.299805,-0.286133,0.914063
1535253255384535,0.304688,-0.290527,0.912109
1535253255407835,0.304688,-0.290039,0.907227
1535253255430284,0.299805,-0.291504,0.903809
1535253255444771,0.303711,-0.285156,0.90918
1535253255467924,0.302734,-0.289551,0.911133
1535253255490280,0.299805,-0.292969,0.90918
1535253255511395,0.299805,-0.285645,0.914551
1535253255535410,0.310547,-0.290527,0.910645
1535253255550440,0.301758,-0.289551,0.90625
1535253255571499,0.308105,-0.288086,0.90625
1535253255587540,0.30127,-0.289063,0.909668
1535253255610100,0.304199,-0.287598,0.901855
1535253255631154,0.305664,-0.289551,0.90625
1535253255647699,0.303711,-0.291016,0.907227
1535253255670258,0.302734,-0.287598,0.912109
1535253255691417,0.299316,-0.281738,0.908691
1535253255707859,0.304688,-0.291016,0.908203
1535253255730457,0.307617,-0.296387,0.909668
1535253255752152,0.300293,-0.289551,0.904297
1535253255767874,0.300781,-0.286133,0.914551
1535253255790076,0.296875,-0.285645,0.913574
1535253255812787,0.307129,-0.289063,0.898438
1535253255827677,0.305176,-0.291992,0.907715
1535253255850244,0.302246,-0.29248,0.910156
1535253255871298,0.303711,-0.288574,0.909668
1535253255887839,0.297852,-0.289551,0.909668
1535253255910399,0.303223,-0.287109,0.910645
1535253255931503,0.305664,-0.289551,0.90625
1535253255948000,0.300293,-0.279297,0.913574
1535253255970559,0.304688,-0.286621,0.906738
1535253255992756,0.299805,-0.284668,0.908691
1535253256008219,0.29834,-0.29248,0.911621
1535253256030273,0.304199,-0.285645,0.912109
1535253256052778,0.299316,-0.285156,0.914551
1535253256067823,0.308594,-0.289551,0.914551
1535253256090379,0.304688,-0.287598,0.914551
1535253256112951,0.302246,-0.288086,0.909668
1535253256127483,0.300293,-0.285156,0.910156
1535253256150538,0.303223,-0.284668,0.910645
1535253256172775,0.304199,-0.288574,0.913086
1535253256187137,0.305176,-0.290039,0.908691
1535253256210197,0.30127,-0.281738,0.909668
1535253256232811,0.307129,-0.29248,0.912598
1535253256246865,0.302734,-0.291992,0.903809
1535253256270412,0.303223,-0.291504,0.910645
1535253256292975,0.303711,-0.288086,0.905273
1535253256307511,0.303223,-0.289551,0.90918
1535253256330579,0.303223,-0.282227,0.90918
1535253256352636,0.305176,-0.289063,0.913574
1535253256367682,0.299316,-0.290527,0.908203
1535253256390233,0.302246,-0.285645,0.904785
1535253256412848,0.304688,-0.289063,0.911133
1535253256427330,0.305664,-0.289063,0.908691
1535253256450391,0.301758,-0.284668,0.912109
1535253256472952,0.305664,-0.287598,0.911133
1535253256494018,0.298828,-0.283691,0.906738
1535253256510552,0.307617,-0.290039,0.904785
1535253256533123,0.300293,-0.285156,0.90918
1535253256553920,0.304199,-0.295898,0.90918
1535253256570420,0.299805,-0.289551,0.908203
1535253256592772,0.301758,-0.288574,0.912109
1535253256621348,0.303711,-0.289551,0.913086
1535253256630371,0.304199,-0.282715,0.910645
1535253256652929,0.30127,-0.288574,0.902344
1535253256681505,0.304688,-0.287598,0.909668
1535253256690531,0.299805,-0.293945,0.908691
1535253256713002,0.303223,-0.289551,0.908691
1535253256733692,0.297852,-0.28125,0.913086
1535253256750433,0.302734,-0.286621,0.914551
1535253256772892,0.301758,-0.290527,0.912598
1535253256793948,0.301758,-0.289063,0.916016
1535253256810490,0.295898,-0.287598,0.912598
1535253256833052,0.300781,-0.29248,0.915039
1535253256854106,0.301758,-0.285156,0.912598
1535253256870201,0.301758,-0.288086,0.910156
1535253256898723,0.305176,-0.291016,0.915527
1535253256921327,0.303223,-0.291504,0.907227
1535253256930311,0.304199,-0.289551,0.912598
1535253256960467,0.303711,-0.287109,0.90918
1535253256982952,0.301758,-0.288086,0.902344
1535253256990472,0.306641,-0.292969,0.904297
1535253257013035,0.306641,-0.283691,0.911133
1535253257035091,0.303711,-0.284668,0.908691
1535253257049628,0.303223,-0.288086,0.908203
1535253257072689,0.302734,-0.28418,0.90918
1535253257095252,0.29834,-0.289551,0.911133
1535253257109787,0.307617,-0.287109,0.910156
1535253257132848,0.301758,-0.293945,0.906738
1535253257155408,0.305176,-0.290039,0.90625
1535253257169607,0.302734,-0.285645,0.912109
1535253257192518,0.303223,-0.284668,0.911133
1535253257215070,0.302246,-0.285645,0.90625
1535253257229826,0.305664,-0.29248,0.905273
1535253257252809,0.303711,-0.29541,0.905273
1535253257275226,0.304688,-0.282715,0.903809
1535253257289765,0.308594,-0.291016,0.910645
1535253257312833,0.308594,-0.292969,0.911621
1535253257335479,0.304688,-0.288086,0.912598
1535253257349426,0.301758,-0.284668,0.914063
1535253257372996,0.301758,-0.293457,0.90918
1535253257402566,0.307129,-0.285645,0.912598
1535253257416197,0.302246,-0.289551,0.907715
1535253257432662,0.304688,-0.29541,0.910156
1535253257455206,0.310059,-0.287109,0.911133
1535253257477768,0.304688,-0.288574,0.900391
1535253257492805,0.303223,-0.291992,0.908691
1535253257515367,0.307129,-0.290039,0.90918
1535253257536469,0.300293,-0.285156,0.909668
1535253257559028,0.308105,-0.28418,0.908691
1535253257575531,0.303223,-0.291016,0.906738
1535253257596651,0.308594,-0.296387,0.910645
1535253257612687,0.302246,-0.287109,0.907715
1535253257635248,0.304199,-0.292969,0.910645
1535253257656648,0.308105,-0.289551,0.907715
1535253257672686,0.305176,-0.291504,0.905762
1535253257695244,0.304688,-0.291016,0.902344
1535253257716300,0.312012,-0.291016,0.908203
1535253257732947,0.303711,-0.289551,0.902832
1535253257755402,0.302246,-0.286621,0.91748
1535253257776567,0.300781,-0.29248,0.914551
1535253257793005,0.303711,-0.286621,0.915039
1535253257815189,0.307129,-0.291016,0.913574
1535253257836671,0.304199,-0.291016,0.904785
1535253257853164,0.304688,-0.292969,0.905273
1535253257875230,0.306152,-0.28418,0.913086
1535253257897783,0.299805,-0.294922,0.904297
1535253257912823,0.303223,-0.29248,0.910645
1535253257935382,0.303223,-0.290527,0.906738
1535253257957943,0.306152,-0.292969,0.910645
1535253257972982,0.304199,-0.282227,0.908203
1535253258002935,0.303711,-0.284668,0.909668
1535253258017607,0.310547,-0.297852,0.907715
1535253258032152,0.306152,-0.294434,0.907715
1535253258055532,0.300293,-0.291016,0.911133
1535253258078096,0.29834,-0.285645,0.910645
1535253258092134,0.304199,-0.290527,0.911621
1535253258115191,0.302734,-0.287109,0.913086
1535253258138348,0.305176,-0.287109,0.907227
1535253258152288,0.305176,-0.291016,0.909668
1535253258175352,0.306641,-0.29541,0.908691
1535253258197909,0.303711,-0.291016,0.908203
1535253258212192,0.301758,-0.290039,0.912109
1535253258235517,0.297852,-0.286621,0.907715
1535253258257570,0.307617,-0.289551,0.906738
1535253258272431,0.299316,-0.290527,0.909668
1535253258295672,0.300781,-0.291016,0.910156
1535253258325251,0.298828,-0.287109,0.912109
1535253258332269,0.30127,-0.283691,0.913086
1535253258355328,0.309082,-0.293945,0.912109
1535253258377889,0.306152,-0.29248,0.901855
1535253258398950,0.307129,-0.29248,0.90918
1535253258415487,0.304688,-0.291016,0.907227
1535253258437912,0.300781,-0.289551,0.913574
1535253258459104,0.30127,-0.286133,0.915039
1535253258475147,0.304199,-0.289063,0.90918
1535253258497835,0.301758,-0.293457,0.907227
1535253258518762,0.301758,-0.285156,0.914551
1535253258535306,0.299805,-0.287598,0.911133
1535253258557365,0.305664,-0.293457,0.906738
1535253258578925,0.303223,-0.290527,0.911621
1535253258595469,0.297363,-0.288574,0.908691
1535253258618027,0.304199,-0.291016,0.906738
1535253258639087,0.305176,-0.288574,0.908691
1535253258655135,0.298828,-0.289063,0.907715
1535253258677864,0.302734,-0.291992,0.908691
1535253258698750,0.304688,-0.289551,0.916992
1535253258715496,0.305664,-0.288574,0.904785
1535253258737850,0.299316,-0.286621,0.906738
1535253258758904,0.302246,-0.290039,0.909668
1535253258775446,0.302734,-0.288086,0.908691
1535253258798007,0.303223,-0.290039,0.908691
1535253258820568,0.298828,-0.285156,0.908691
1535253258842640,0.298828,-0.286621,0.90918
1535253258864186,0.303711,-0.290039,0.913574
1535253258880277,0.303711,-0.286621,0.90918
1535253258895266,0.300781,-0.285156,0.908691
1535253258917840,0.301758,-0.288574,0.907715
1535253258940272,0.302734,-0.285156,0.907715
1535253258954602,0.303223,-0.287598,0.907227
1535253258977768,0.298828,-0.289063,0.917969
1535253259000221,0.30127,-0.290039,0.911621
1535253259014761,0.302734,-0.284668,0.913574
1535253259037821,0.307617,-0.288086,0.914063
1535253259060382,0.306152,-0.287109,0.90918
1535253259074418,0.29834,-0.292969,0.905273
1535253259097985,0.302734,-0.284668,0.912109
1535253259120546,0.298828,-0.291992,0.914063
1535253259134592,0.295898,-0.290527,0.919434
1535253259157641,0.300293,-0.285156,0.911133
1535253259180202,0.30127,-0.28418,0.911133
1535253259202816,0.303223,-0.289551,0.90918
1535253259217801,0.29834,-0.292969,0.905273
1535253259240860,0.300781,-0.286133,0.916504
1535253259254401,0.302246,-0.285645,0.912109
1535253259277458,0.302246,-0.283203,0.914551
1535253259300022,0.302734,-0.288574,0.90918
1535253259321713,0.300293,-0.291504,0.90918
1535253259338124,0.299805,-0.294922,0.910156
1535253259360320,0.303711,-0.28418,0.913574
1535253259381237,0.304199,-0.279785,0.916016
1535253259398120,0.304199,-0.283203,0.911621
1535253259420339,0.296875,-0.286133,0.912109
1535253259441395,0.303223,-0.29541,0.90625
1535253259458021,0.301758,-0.285156,0.904785
1535253259479998,0.305176,-0.290039,0.906738
1535253259501556,0.302246,-0.288574,0.913086
1535253259518100,0.296387,-0.282715,0.916016
1535253259540365,0.30127,-0.293945,0.911133
1535253259561328,0.309082,-0.288574,0.916504
1535253259577839,0.303711,-0.282715,0.910645
1535253259600319,0.29541,-0.288086,0.909668
1535253259621373,0.299805,-0.288086,0.905273
1535253259637917,0.308594,-0.285156,0.911621
1535253259660476,0.29834,-0.291016,0.910156
1535253259681582,0.300293,-0.29541,0.911133
1535253259698116,0.304688,-0.288574,0.921875
1535253259720251,0.301758,-0.288574,0.911621
1535253259741195,0.305176,-0.283691,0.913574
1535253259757736,0.302734,-0.293457,0.907227
1535253259780486,0.305176,-0.288574,0.912109
1535253259802860,0.30957,-0.289063,0.911133
1535253259817898,0.298828,-0.288086,0.905273
1535253259840463,0.30127,-0.294434,0.907227
1535253259863018,0.301758,-0.292969,0.910645
1535253259877055,0.303223,-0.286133,0.911621
1535253259900334,0.306152,-0.289063,0.910156
1535253259922841,0.300293,-0.287598,0.909668
1535253259943735,0.300781,-0.295898,0.90332
1535253259960280,0.303223,-0.288574,0.912598
1535253259982885,0.302734,-0.28125,0.909668
1535253259996879,0.30127,-0.287109,0.911621
1535253260020434,0.303711,-0.287598,0.903809
1535253260042493,0.305176,-0.286621,0.90918
1535253260057031,0.306641,-0.287598,0.913574
1535253260080092,0.308105,-0.286133,0.909668
1535253260102654,0.300781,-0.287109,0.914063
1535253260117397,0.300293,-0.288574,0.915039
1535253260140255,0.301758,-0.290039,0.90918
1535253260162825,0.310059,-0.290039,0.909668
1535253260177353,0.30127,-0.287598,0.908691
1535253260200414,0.30127,-0.294434,0.90625
1535253260229030,0.306152,-0.288086,0.907715
1535253260251557,0.308105,-0.291016,0.906738
1535253260267695,0.297363,-0.290527,0.910645
1535253260290176,0.306152,-0.292969,0.917969
1535253260303691,0.310059,-0.286621,0.914063
1535253260320230,0.306641,-0.287598,0.910156
1535253260342824,0.318359,-0.276367,0.907715
1535253260363659,0.301758,-0.287109,0.912109
1535253260380260,0.296387,-0.287598,0.88916
1535253260402762,0.307129,-0.301758,0.896484
1535253260423818,0.316895,-0.297852,0.90918
1535253260430839,0.299316,-0.284668,0.903809
1535253260445486,0.304199,-0.282227,0.903809
1535253260467936,0.311035,-0.29248,0.907227
1535253260490545,0.310059,-0.286133,0.900879
1535253260505584,0.307129,-0.286621,0.90918
1535253260529650,0.305664,-0.296387,0.916504
1535253260550706,0.303223,-0.291016,0.92041
1535253260565745,0.291016,-0.276855,0.916504
1535253260588337,0.308105,-0.291992,0.910156
1535253260610912,0.305176,-0.288086,0.906738
1535253260625907,0.313477,-0.286621,0.911133
1535253260648612,0.304688,-0.291992,0.90625
1535253260670568,0.296875,-0.288086,0.908203
1535253260685566,0.304688,-0.291992,0.907715
1535253260708166,0.30957,-0.286621,0.910156
1535253260730689,0.301758,-0.291504,0.907715
1535253260745777,0.311523,-0.290527,0.906738
1535253260775819,0.301758,-0.285156,0.90918
1535253260790846,0.297852,-0.288574,0.911133
1535253260805886,0.306152,-0.288574,0.912598
1535253260828462,0.299805,-0.28125,0.911133
1535253260850614,0.302734,-0.286133,0.906738
1535253260867056,0.305664,-0.288086,0.913086
1535253260888145,0.308105,-0.293457,0.902832
1535253260910674,0.307129,-0.292969,0.910156
1535253260925704,0.305664,-0.291992,0.916992
