timestamp,x,y,z
1535253373575069,0.1875,-0.92334,-0.225586
1535253373597640,0.210449,-1.01514,0.0766602
1535253373605650,-0.142578,-1.05127,-0.236328
1535253373629284,0.35498,-0.990723,0.120117
1535253373658339,0.336426,-0.90918,-0.443848
1535253373665698,-0.00634766,-1.05811,-0.0292969
1535253373689383,0.105957,-0.95752,-0.12793
1535253373718522,0.0883789,-0.985352,-0.126953
1535253373749725,0.097168,-1.0083,-0.135742
1535253373752111,0.0952148,-1.00391,-0.132813
1535253373764374,0.0986328,-0.980469,-0.128906
1535253373786247,0.0961914,-0.965332,-0.139648
1535253373809981,0.0849609,-0.989258,-0.144043
1535253373824804,0.0917969,-1.01172,-0.139648
1535253373867919,0.0898438,-0.993164,-0.149902
1535253373877970,0.0878906,-0.979004,-0.152344
1535253373884088,0.0795898,-0.991211,-0.143555
1535253373906083,0.0883789,-0.998047,-0.135742
1535253373928604,0.0756836,-0.98877,-0.15625
1535253373942661,0.0844727,-0.972656,-0.155762
1535253373965954,0.0795898,-0.974609,-0.14502
1535253373988283,0.0830078,-0.990234,-0.144531
1535253374002954,0.0791016,-0.990234,-0.152344
1535253374026133,0.0849609,-0.986816,-0.141602
1535253374048655,0.0751953,-0.984375,-0.154785
1535253374063984,0.0839844,-0.97998,-0.15918
1535253374086043,0.0854492,-0.991699,-0.148438
1535253374108602,0.0898438,-0.993164,-0.136719
1535253374124144,0.0917969,-0.978516,-0.146484
1535253374146039,0.081543,-0.965332,-0.150879
1535253374168285,0.0864258,-0.991699,-0.154297
1535253374184419,0.0795898,-0.995117,-0.152344
1535253374205874,0.0737305,-0.97168,-0.143555
1535253374228422,0.0776367,-0.954102,-0.140625
1535253374244464,0.0742188,-0.979004,-0.143555
1535253374266022,0.078125,-0.995117,-0.142578
1535253374289084,0.0649414,-0.989746,-0.147461
1535253374304124,0.0810547,-0.975586,-0.145508
1535253374326183,0.0869141,-0.983398,-0.155762
1535253374348242,0.074707,-0.996094,-0.151367
1535253374364294,0.0561523,-1.00342,-0.157715
1535253374386344,0.0717773,-0.990723,-0.163086
1535253374408402,0.0849609,-0.98291,-0.163086
1535253374424444,0.0820313,-0.971191,-0.161621
1535253374446144,0.0742188,-0.972656,-0.160645
1535253374468580,0.0766602,-0.978027,-0.168945
1535253374484107,0.0810547,-0.987305,-0.163574
1535253374505158,0.0766602,-0.983887,-0.153809
1535253374528236,0.0620117,-0.967773,-0.149902
1535253374544263,0.0625,-0.974121,-0.16748
1535253374565317,0.0771484,-0.993164,-0.168457
1535253374588402,0.0703125,-0.994629,-0.155273
1535253374604444,0.0668945,-0.977051,-0.150879
1535253374625501,0.0742188,-0.969238,-0.154785
1535253374648562,0.0805664,-0.976074,-0.155273
1535253374664104,0.0649414,-0.992188,-0.142578
1535253374685163,0.0385742,-0.972168,-0.157715
1535253374708221,0.0361328,-0.958984,-0.172852
1535253374724263,0.0498047,-0.969727,-0.184082
1535253374745331,0.0551758,-0.983887,-0.161621
1535253374768383,0.0541992,-0.996094,-0.14502
1535253374784425,0.0629883,-0.976074,-0.135254
1535253374805480,0.0522461,-0.964355,-0.142578
1535253374828039,0.0375977,-0.98291,-0.166992
1535253374860095,0.0351563,-0.995117,-0.167969
1535253374874664,0.0380859,-0.993652,-0.165527
1535253374890063,0.0385742,-0.990723,-0.176758
1535253374904242,0.0507813,-0.984375,-0.180664
1535253374926965,0.0576172,-0.992188,-0.177734
1535253374950116,0.0595703,-0.98877,-0.166016
1535253374970920,0.0615234,-0.994141,-0.165039
1535253374986961,0.0556641,-0.992676,-0.170898
1535253375010023,0.0776367,-0.97998,-0.163574
1535253375031079,0.0761719,-0.975098,-0.169434
1535253375046864,0.0634766,-0.986816,-0.162598
1535253375069704,0.0483398,-1.00488,-0.15918
1535253375090738,0.0454102,-0.995117,-0.154297
1535253375106781,0.0385742,-0.969238,-0.155762
1535253375129842,0.043457,-0.988281,-0.166016
1535253375151037,0.0385742,-1.01172,-0.163086
1535253375166941,0.0478516,-0.998047,-0.160156
1535253375190003,0.0444336,-0.973633,-0.157715
1535253375211059,0.0512695,-0.979004,-0.161133
1535253375226599,0.0400391,-0.999023,-0.165039
1535253375250209,0.0258789,-0.992676,-0.16748
1535253375271250,0.0371094,-0.98877,-0.175781
1535253375286764,0.0410156,-0.991211,-0.17627
1535253375309823,0.00585938,-1.00391,-0.165039
1535253375330993,-0.0332031,-1.02832,-0.166504
1535253375347037,-0.0161133,-1.02881,-0.169434
1535253375369988,-0.00732422,-1.00977,-0.165527
1535253375392598,-0.0454102,-1.02148,-0.150879
1535253375415135,-0.0488281,-1.03174,-0.147461
1535253375429172,-0.0288086,-1.02295,-0.157715
1535253375451076,-0.0351563,-0.990234,-0.165527
1535253375466773,-0.0537109,-0.981934,-0.169434
1535253375489333,-0.0698242,-0.986328,-0.161621
1535253375512421,-0.0766602,-0.977051,-0.154785
1535253375526935,-0.0830078,-0.959473,-0.168457
1535253375549492,-0.111328,-0.957031,-0.17334
1535253375572670,-0.12793,-0.971191,-0.167969
1535253375587122,-0.137207,-0.967285,-0.164063
1535253375609151,-0.145508,-0.952148,-0.158203
1535253375648261,-0.152344,-0.941406,-0.146484
1535253375653770,-0.182129,-0.950684,-0.137695
1535253375669312,-0.196777,-0.959473,-0.123535
1535253375692520,-0.193359,-0.946777,-0.135254
1535253375713525,-0.221191,-0.936523,-0.12207
1535253375729519,-0.237305,-0.952637,-0.123535
1535253375752539,-0.237793,-0.94873,-0.122559
1535253375775094,-0.242676,-0.935547,-0.135254
1535253375789131,-0.267578,-0.954102,-0.130859
1535253375812402,-0.279297,-0.96875,-0.120117
1535253375833248,-0.304199,-0.964355,-0.135254
1535253375849295,-0.327148,-0.916992,-0.134766
1535253375872352,-0.319824,-0.923828,-0.133789
1535253375893514,-0.317383,-0.962891,-0.132324
1535253375909484,-0.344238,-0.939453,-0.121582
1535253375932631,-0.353027,-0.924316,-0.124023
1535253375953598,-0.353516,-0.92041,-0.126953
1535253375991772,-0.366699,-0.925781,-0.125
1535253375992674,-0.379395,-0.913574,-0.113281
1535253376014730,-0.381836,-0.912109,-0.118652
1535253376029296,-0.404785,-0.903809,-0.109375
1535253376052330,-0.408691,-0.896973,-0.114258
1535253376073388,-0.416016,-0.881348,-0.111328
1535253376089428,-0.427246,-0.887695,-0.106934
1535253376112489,-0.447754,-0.899902,-0.10498
1535253376133587,-0.458984,-0.888672,-0.097168
1535253376149172,-0.416992,-0.916504,-0.0737305
1535253376172338,-0.463867,-0.897461,-0.0400391
1535253376193245,-0.503906,-0.869141,-0.059082
1535253376209247,-0.504883,-0.853516,-0.0844727
1535253376232310,-0.504395,-0.835449,-0.0854492
1535253376253365,-0.487793,-0.830078,-0.0957031
1535253376269410,-0.524902,-0.852539,-0.0898438
1535253376292479,-0.531738,-0.883301,-0.0874023
1535253376313537,-0.53418,-0.855957,-0.0957031
1535253376329078,-0.536133,-0.839844,-0.0771484
1535253376351639,-0.534668,-0.849121,-0.0703125
1535253376373194,-0.5625,-0.823242,-0.0610352
1535253376389236,-0.561035,-0.829102,-0.0527344
1535253376411796,-0.552734,-0.816895,-0.0585938
1535253376433353,-0.564941,-0.804688,-0.0527344
1535253376449397,-0.584473,-0.813965,-0.0371094
1535253376471956,-0.595215,-0.804199,-0.0375977
1535253376495132,-0.599609,-0.799316,-0.0385742
1535253376515689,-0.606445,-0.787109,-0.0273438
1535253376531616,-0.631348,-0.768066,-0.0371094
1535253376554678,-0.635254,-0.778809,-0.0390625
1535253376575840,-0.614746,-0.77832,-0.0371094
1535253376591777,-0.624512,-0.766113,-0.0249023
1535253376614839,-0.637695,-0.749023,-0.00537109
1535253376635892,-0.653809,-0.740234,-0.0175781
1535253376651982,-0.645508,-0.740723,-0.00439453
1535253376675003,-0.65918,-0.748535,-0.00390625
1535253376696170,-0.671387,-0.734863,-0.00585938
1535253376712096,-0.675781,-0.720215,-0.00244141
1535253376735191,-0.689453,-0.729004,-0.000976563
1535253376756254,-0.696777,-0.732422,0.0117188
1535253376771875,-0.692383,-0.705566,-0.000488281
1535253376794824,-0.706543,-0.680664,0.00439453
1535253376816018,-0.712891,-0.688965,0.0112305
1535253376831916,-0.708008,-0.706055,0.0185547
1535253376855034,-0.712891,-0.708496,0.00537109
1535253376876032,-0.723633,-0.677246,0.00292969
1535253376891574,-0.731445,-0.675293,0.0117188
1535253376914635,-0.739258,-0.691895,0.0102539
1535253376935690,-0.737305,-0.684082,0.00244141
1535253376951734,-0.737305,-0.671875,0.012207
1535253376975296,-0.753418,-0.668945,0.0185547
1535253376995965,-0.756836,-0.656738,0.0219727
1535253377011894,-0.750488,-0.665039,0.0288086
1535253377035552,-0.751953,-0.648438,0.0283203
1535253377057570,-0.763184,-0.64209,0.0302734
1535253377078571,-0.771484,-0.64209,0.0361328
1535253377094112,-0.77832,-0.638184,0.0327148
1535253377116785,-0.786133,-0.614746,0.0244141
1535253377131210,-0.776855,-0.625,0.0307617
1535253377145246,-0.776855,-0.62793,0.0395508
1535253377167809,-0.778809,-0.621582,0.043457
1535253377190944,-0.775391,-0.605957,0.0449219
1535253377205471,-0.785645,-0.597656,0.0517578
1535253377228076,-0.799316,-0.596191,0.0576172
1535253377251030,-0.79541,-0.600098,0.0498047
1535253377265568,-0.803711,-0.591797,0.0498047
1535253377287878,-0.807617,-0.579102,0.0566406
1535253377311193,-0.826172,-0.578613,0.0600586
1535253377325228,-0.8125,-0.580078,0.0551758
1535253377347832,-0.819336,-0.570801,0.0644531
1535253377371350,-0.828613,-0.554199,0.0708008
1535253377385426,-0.827148,-0.541992,0.0732422
1535253377416978,-0.83252,-0.545898,0.0644531
1535253377431056,-0.833984,-0.555664,0.074707
1535253377445547,-0.837402,-0.548828,0.0751953
1535253377468112,-0.84082,-0.526855,0.0849609
1535253377491168,-0.842773,-0.524902,0.081543
1535253377505206,-0.838867,-0.529297,0.0810547
1535253377527767,-0.839844,-0.518066,0.0883789
1535253377550827,-0.862793,-0.503906,0.0957031
1535253377565480,-0.861328,-0.512695,0.10498
1535253377587928,-0.859863,-0.503906,0.117188
1535253377611501,-0.86377,-0.504395,0.114746
1535253377633724,-0.868164,-0.497559,0.122559
1535253377647688,-0.916504,-0.485352,0.101074
1535253377671149,-0.845215,-0.46875,0.126953
1535253377685244,-0.883789,-0.477051,0.125488
1535253377707802,-0.870605,-0.475586,0.12207
1535253377730977,-0.873047,-0.465332,0.11377
1535253377745478,-0.884277,-0.463379,0.12793
1535253377769404,-0.885254,-0.481445,0.140625
1535253377790904,-0.825195,-0.433594,0.127441
1535253377805405,-0.890137,-0.455078,0.129395
1535253377828007,-0.875488,-0.444336,0.158691
1535253377851064,-0.886719,-0.445313,0.149414
1535253377865499,-0.879395,-0.453613,0.142578
1535253377889560,-0.945801,-0.473633,0.137207
1535253377911116,-0.855957,-0.437012,0.164551
1535253377925248,-0.884277,-0.413574,0.170898
1535253377947817,-0.87207,-0.444336,0.182129
1535253377970773,-0.856445,-0.441406,0.188477
1535253377985420,-0.875488,-0.385742,0.187988
1535253378007971,-0.878418,-0.383301,0.184082
1535253378030938,-0.866699,-0.407227,0.187988
1535253378045477,-0.861816,-0.403809,0.182129
1535253378068038,-0.864258,-0.419434,0.179199
1535253378091094,-0.874023,-0.421875,0.165527
1535253378105260,-0.875,-0.421387,0.171387
1535253378127970,-0.877441,-0.429688,0.164063
1535253378150750,-0.879395,-0.444336,0.160156
1535253378165495,-0.883301,-0.438965,0.155273
1535253378189361,-0.882324,-0.462402,0.15918
1535253378210954,-0.867676,-0.466797,0.165039
1535253378225494,-0.867188,-0.479004,0.148438
1535253378248028,-0.856445,-0.482422,0.134277
1535253378271405,-0.853027,-0.492676,0.130859
1535253378285621,-0.842285,-0.500488,0.123047
1535253378307671,-0.842773,-0.52002,0.118652
1535253378330734,-0.837402,-0.532227,0.104004
1535253378346774,-0.824219,-0.526367,0.0996094
1535253378368033,-0.820313,-0.54834,0.111816
1535253378390390,-0.820801,-0.581055,0.0976563
1535253378405431,-0.812988,-0.572754,0.0922852
1535253378444030,-0.825684,-0.569336,0.0908203
1535253378450549,-0.82959,-0.58252,0.108398
1535253378468098,-0.823242,-0.586426,0.097168
1535253378487750,-0.8125,-0.591309,0.0844727
1535253378510209,-0.810547,-0.597168,0.0756836
1535253378526865,-0.794922,-0.578125,0.0737305
1535253378549311,-0.786621,-0.598145,0.065918
1535253378570366,-0.770996,-0.614746,0.0610352
1535253378585460,-0.77002,-0.627441,0.046875
1535253378608014,-0.774414,-0.629395,0.0493164
1535253378630534,-0.77002,-0.630859,0.0332031
1535253378645571,-0.74707,-0.633301,0.0302734
1535253378667665,-0.734375,-0.652344,0.027832
1535253378690219,-0.736328,-0.66748,0.0322266
1535253378713748,-0.720215,-0.701172,0.0415039
1535253378727826,-0.717773,-0.693359,0.0239258
1535253378750352,-0.698242,-0.689453,0.00634766
1535253378765391,-0.697754,-0.72168,0.0126953
1535253378787947,-0.682129,-0.746094,0.0161133
1535253378810553,-0.67627,-0.726563,-0.00634766
1535253378825088,-0.669434,-0.720703,-0.0141602
1535253378857131,-0.661621,-0.744141,-0.00537109
1535253378879235,-0.650391,-0.779785,-0.0078125
1535253378885204,-0.645996,-0.780762,-0.00488281
1535253378907765,-0.630371,-0.755371,-0.0151367
1535253378930369,-0.618164,-0.770996,-0.0209961
1535253378946872,-0.614746,-0.809082,-0.0185547
1535253378967970,-0.616699,-0.818848,-0.0205078
1535253378990501,-0.60791,-0.807617,-0.0341797
1535253379005545,-0.583496,-0.8125,-0.0356445
1535253379036167,-0.579102,-0.83252,-0.0400391
1535253379050198,-0.578125,-0.800781,-0.0400391
1535253379073722,-0.575684,-0.809082,-0.0546875
1535253379087786,-0.566406,-0.82373,-0.0507813
1535253379110358,-0.541992,-0.830566,-0.0488281
1535253379133421,-0.54248,-0.838867,-0.0527344
1535253379147919,-0.543457,-0.822754,-0.059082
1535253379170503,-0.532715,-0.835938,-0.0595703
1535253379193579,-0.526367,-0.849121,-0.0517578
1535253379208081,-0.515137,-0.853027,-0.0571289
1535253379230177,-0.497559,-0.86084,-0.0688477
1535253379253700,-0.48877,-0.858398,-0.0678711
1535253379275799,-0.495117,-0.865723,-0.0693359
1535253379290301,-0.472168,-0.854004,-0.0712891
1535253379312898,-0.456543,-0.868164,-0.0849609
1535253379328015,-0.452637,-0.896484,-0.0771484
1535253379350540,-0.437012,-0.898926,-0.0927734
1535253379373102,-0.428711,-0.867188,-0.0859375
1535253379387681,-0.416992,-0.895996,-0.0976563
1535253379410200,-0.406738,-0.925781,-0.09375
1535253379432797,-0.415039,-0.909668,-0.0922852
1535253379447846,-0.399902,-0.894531,-0.0922852
1535253379470399,-0.37793,-0.882813,-0.103516
1535253379492961,-0.371094,-0.902832,-0.103027
1535253379508007,-0.361328,-0.916504,-0.0957031
1535253379531525,-0.356934,-0.917969,-0.0991211
1535253379552593,-0.34082,-0.940918,-0.103516
1535253379592200,-0.317871,-0.95459,-0.104492
1535253379606238,-0.299805,-0.938965,-0.111816
1535253379622278,-0.290527,-0.976563,-0.127441
1535253379636823,-0.23584,-0.918457,-0.124512
1535253379659918,-0.317383,-0.877441,-0.314453
1535253379674928,-0.121582,-0.81543,-0.324707
1535253379696020,-0.285156,-1.06006,0.154785
1535253379712567,-0.13623,-0.910156,-0.44873
1535253379733695,-0.65332,-1.17822,0.0766602
1535253379750623,0.362305,-0.894531,0.0595703
1535253379772180,0.216309,-0.795898,-0.37793
1535253379793234,-0.349609,-0.832031,-0.538086
1535253379809779,-0.528809,-0.881348,-0.556152
1535253379832840,-0.262207,-0.855469,-0.537109
1535253379853426,0.360352,-0.82666,-0.190918
1535253379869987,0.309082,-1.06396,0.339844
1535253379892550,-0.80127,-1.04346,-0.45752
1535253379913607,0.506348,-0.813477,0.0161133
1535253379930101,-0.675781,-1.16357,-0.270996
1535253379952250,0.582031,-0.850098,0.119629
1535253379973714,-0.702148,-1.02344,-0.65332
1535253379989759,0.152344,-1.14648,0.311523
1535253380012316,0.509766,-0.809082,-0.00390625
1535253380033472,-0.399902,-0.881836,-0.726074
1535253380049970,-0.623535,-1.18018,-0.46875
1535253380072476,-0.0771484,-1.22852,0.151367
1535253380093585,0.422852,-1.09082,0.463867
1535253380110110,0.62207,-0.92334,0.470703
1535253380132638,0.674805,-0.852051,0.421387
1535253380153696,0.685547,-0.879395,0.44043
1535253380169738,0.651855,-0.929688,0.528809
1535253380192301,0.450684,-1.03955,0.553223
1535253380213515,-0.0336914,-1.22266,0.226563
1535253380229899,-0.558105,-1.26221,-0.555664
1535253380252458,-0.33252,-0.988281,-0.949707
1535253380273513,0.559082,-0.733887,0.046875
1535253380290058,0.251465,-1.08643,0.575195
1535253380312620,-0.570313,-1.18506,-0.884277
1535253380333676,0.557617,-0.713867,-0.0161133
1535253380350056,-0.160645,-1.21143,0.186523
1535253380378412,0.0922852,-0.809082,-0.763672
1535253380393332,0.108887,-1.0957,0.512695
1535253380409876,0.0683594,-0.840332,-0.822754
1535253380430435,0.0405273,-1.1167,0.425781
1535253380446977,0.616211,-0.936523,0.019043
1535253380469033,0.194824,-1.01855,-0.0917969
1535253380490590,0.12207,-0.955078,-0.166504
1535253380530830,0.115723,-0.955078,-0.180176
1535253380531198,0.124512,-0.977051,-0.174316
1535253380559274,0.111328,-0.975098,-0.165527
1535253380572848,0.0576172,-0.962402,-0.259277
1535253380589360,0.187988,-0.949219,-0.152832
1535253380610414,0.153809,-0.991699,-0.181152
1535253380632969,0.157227,-0.990234,-0.189453
1535253380649016,0.164551,-0.962402,-0.195313
1535253380670574,0.15918,-0.987793,-0.191406
1535253380693133,0.155762,-1.00977,-0.19043
1535253380709173,0.150391,-1.00195,-0.181152
1535253380730266,0.17041,-0.975098,-0.181152
1535253380746779,0.166016,-0.995117,-0.174316
1535253380769476,0.160156,-0.995605,-0.17627
1535253380790394,0.162109,-0.968262,-0.182129
1535253380830496,0.171387,-0.974121,-0.17334
1535253380831498,0.181641,-0.963379,-0.180176
1535253380859579,0.166992,-0.974121,-0.177246
1535253380882634,0.138672,-0.975098,-0.212402
1535253380897701,0.284668,-0.984863,-0.0761719
1535253380912212,0.312988,-1.0249,-0.0488281
1535253380934808,0.0405273,-1.11426,0.043457
1535253380949311,0.315918,-0.850098,-0.480469
1535253380972382,-0.15332,-1.14844,0.090332
1535253381002457,0.716309,-0.853516,-0.0786133
1535253381009492,0.348633,-0.876953,-0.51709
1535253381030529,-0.349609,-1.01172,-0.48584
1535253381053131,-0.563477,-1.0752,-0.346191
1535253381069130,-0.484863,-1.05713,-0.250488
1535253381091694,0.114258,-0.901367,-0.206543
1535253381112746,0.140625,-0.977539,-0.181152
1535253381129378,0.168457,-0.97168,-0.167969
1535253381153353,0.157715,-0.973145,-0.164551
1535253381172909,0.140625,-0.953613,-0.186523
1535253381189175,0.137695,-0.934082,-0.213379
1535253381211731,0.163574,-0.952637,-0.223145
1535253381232784,0.162598,-0.971191,-0.206543
1535253381249349,0.146973,-0.966797,-0.199219
1535253381271887,0.140137,-0.950684,-0.206543
1535253381301004,0.157715,-0.958008,-0.199219
1535253381308986,0.155273,-0.968262,-0.181641
1535253381331696,0.138672,-0.978516,-0.170898
1535253381352602,0.134766,-0.973145,-0.164551
1535253381369341,0.139648,-0.970215,-0.172852
1535253381391707,0.144043,-0.976074,-0.174316
1535253381412765,0.147949,-0.972656,-0.172852
1535253381429388,0.152344,-0.990234,-0.162598
1535253381451867,0.157227,-0.986816,-0.166504
1535253381472923,0.159668,-0.988281,-0.160156
1535253381489468,0.153809,-0.980957,-0.164551
1535253381520550,0.154785,-0.982422,-0.155273
1535253381533083,0.15332,-0.977539,-0.15332
1535253381549126,0.161133,-0.968262,-0.151855
1535253381571687,0.162598,-0.96582,-0.164063
1535253381592743,0.151855,-0.972168,-0.168945
1535253381609290,0.15332,-0.963867,-0.166504
1535253381631850,0.152344,-0.963867,-0.16748
1535253381652907,0.146484,-0.963379,-0.174316
1535253381693009,0.14502,-0.964844,-0.175781
1535253381694011,0.14209,-0.964355,-0.179688
1535253381721585,0.145508,-0.970703,-0.178711
1535253381736204,0.17627,-0.96582,-0.18457
1535253381751213,0.0205078,-0.912598,-0.303711
1535253381773727,0.104492,-0.90918,-0.200684
1535253381788369,0.120605,-0.981934,-0.184082
1535253381810872,0.145508,-0.967773,-0.178223
1535253381834887,0.147461,-0.979004,-0.167969
1535253381856036,0.143555,-0.983887,-0.16748
1535253381870586,0.144043,-0.969238,-0.159668
1535253381893543,0.144531,-0.965332,-0.177246
1535253381908584,0.137695,-0.97998,-0.175781
1535253381931255,0.146484,-0.98877,-0.168457
1535253381953738,0.152344,-0.969727,-0.160156
1535253381968850,0.150391,-0.96875,-0.164063
1535253381990920,0.140137,-0.981445,-0.164063
1535253382013422,0.136719,-0.981934,-0.164063
1535253382028402,0.138672,-0.986328,-0.162598
1535253382052473,0.139648,-0.976074,-0.166992
1535253382073628,0.149902,-0.972168,-0.166992
1535253382090214,0.145508,-0.979004,-0.16748
1535253382112124,0.155273,-0.978516,-0.167969
1535253382133681,0.144043,-0.983887,-0.178711
1535253382149724,0.143066,-0.976074,-0.170898
1535253382171288,0.139648,-0.970703,-0.17334
1535253382193367,0.14209,-0.972168,-0.169922
1535253382209884,0.141113,-0.975098,-0.17627
1535253382230942,0.137695,-0.969727,-0.169922
1535253382253556,0.14209,-0.969238,-0.174316
1535253382270051,0.140137,-0.965332,-0.17041
1535253382291169,0.143066,-0.975098,-0.174316
1535253382313664,0.140625,-0.980469,-0.164063
1535253382330205,0.129395,-0.975586,-0.17041
1535253382350764,0.143066,-0.963379,-0.168945
1535253382373824,0.145508,-0.966309,-0.166992
1535253382389912,0.138672,-0.976563,-0.167969
1535253382410924,0.135254,-0.976563,-0.168945
1535253382433518,0.136719,-0.978027,-0.172852
1535253382450024,0.143066,-0.969238,-0.165039
1535253382471082,0.134277,-0.966309,-0.170898
1535253382493704,0.131836,-0.984863,-0.170898
1535253382509683,0.133789,-0.982422,-0.164063
1535253382531242,0.13916,-0.969238,-0.164551
1535253382553405,0.138672,-0.97168,-0.165527
1535253382570471,0.136719,-0.980469,-0.168457
1535253382598421,0.133301,-0.98291,-0.157227
1535253382613569,0.132813,-0.972656,-0.159668
1535253382630043,0.132813,-0.972168,-0.171387
1535253382651058,0.125977,-0.975098,-0.180176
1535253382673733,0.133789,-0.986816,-0.170898
1535253382690671,0.133789,-0.970703,-0.172852
1535253382710717,0.137207,-0.964844,-0.172363
1535253382733334,0.131836,-0.98877,-0.172852
1535253382749820,0.131348,-0.991699,-0.164063
1535253382770918,0.133301,-0.964844,-0.168945
1535253382793535,0.134277,-0.966797,-0.175781
1535253382809981,0.13916,-0.979492,-0.16748
1535253382831080,0.134277,-0.983887,-0.170898
1535253382853599,0.133789,-0.971191,-0.170898
1535253382869914,0.140137,-0.964355,-0.164551
1535253382891247,0.142578,-0.972656,-0.162598
1535253382913799,0.137207,-0.97998,-0.166504
1535253382929298,0.134277,-0.969238,-0.160645
1535253382950855,0.130859,-0.967773,-0.167969
1535253382973416,0.131836,-0.974609,-0.164551
1535253382989456,0.129395,-0.980957,-0.149414
1535253383011016,0.118164,-0.990723,-0.152832
1535253383033574,0.121094,-0.97998,-0.147461
1535253383049206,0.130859,-0.972168,-0.145508
1535253383072729,0.146484,-0.977051,-0.146484
1535253383093235,0.13623,-0.986328,-0.148438
1535253383109305,0.139648,-0.991211,-0.149902
1535253383132499,0.130859,-0.975098,-0.154785
1535253383153394,0.118164,-0.978027,-0.155762
1535253383169436,0.126465,-0.980469,-0.181641
1535253383192499,0.124023,-0.975586,-0.188477
1535253383213671,0.112793,-0.97168,-0.20166
1535253383229095,0.101074,-0.978516,-0.189941
