timestamp,x,y,z
1535253287318113,0.320313,0.390625,0.852051
1535253287341227,0.319336,0.367188,0.866699
1535253287363267,0.291016,0.418945,0.886719
1535253287378288,0.297852,0.44873,0.876953
1535253287401835,0.265137,0.400879,0.918945
1535253287423393,0.302246,0.399414,0.924316
1535253287446956,0.324707,0.414551,0.935547
1535253287492098,0.335449,0.391602,0.912598
1535253287499095,0.320801,0.385742,0.902344
1535253287511127,0.309082,0.399414,0.856445
1535253287522165,0.30957,0.412109,0.842773
1535253287547245,0.292969,0.363281,0.842285
1535253287574818,0.271484,0.350098,0.818848
1535253287626456,0.279297,0.349121,0.793457
1535253287627458,0.300293,0.380859,0.78418
1535253287635480,0.280273,0.392578,0.782227
1535253287643500,0.269531,0.323242,0.786621
1535253287663053,0.286621,0.299316,0.812988
1535253287685613,0.277344,0.296387,0.833496
1535253287703661,0.249512,0.308105,0.850586
1535253287723213,0.266113,0.331055,0.853516
1535253287745272,0.274414,0.331055,0.859863
1535253287763334,0.291992,0.337891,0.899414
1535253287782872,0.249023,0.309082,0.882813
1535253287805431,0.305664,0.314453,0.83252
1535253287823479,0.40625,0.360352,0.816895
1535253287843032,0.35791,0.359863,0.871582
1535253287865592,0.35498,0.277344,0.905273
1535253287883641,0.376465,0.470215,0.815918
1535253287903192,0.390137,0.435059,0.901855
1535253287925752,0.33252,0.421875,0.929199
1535253287943299,0.312988,0.432129,1.02539
1535253287963095,0.337891,0.520996,0.979004
1535253287985410,0.219238,0.265137,0.963379
1535253288003459,0.322266,0.388184,0.842285
1535253288023010,0.370605,0.387207,0.831055
1535253288045571,0.300293,0.266113,0.858398
1535253288063618,0.283203,0.276367,0.935059
1535253288084690,0.291016,0.279297,0.912109
1535253288105735,0.280273,0.237305,0.95752
1535253288123680,0.29541,0.174316,0.969727
1535253288144333,0.313965,0.246094,0.912598
1535253288165434,0.318359,0.238281,0.892578
1535253288183437,0.327148,0.237793,0.918457
1535253288204495,0.321777,0.262207,0.920898
1535253288225610,0.253418,0.185059,0.949707
1535253288243597,0.26416,0.345703,0.92627
1535253288264654,0.296875,0.242676,0.936035
1535253288285709,0.138672,0.0727539,0.958984
1535253288303294,0.214355,0.0449219,1.00684
1535253288324316,0.367676,0.214844,0.887695
1535253288345368,0.26123,0.174316,0.94873
1535253288363417,0.26709,0.27002,0.907715
1535253288384472,0.334473,0.245605,0.905273
1535253288405532,0.280762,0.157715,0.957031
1535253288423605,0.270508,0.0517578,0.955078
1535253288444696,0.266602,0.0571289,0.967285
1535253288465688,0.285645,0.104492,0.94043
1535253288483235,0.305664,0.0620117,0.940918
1535253288510307,0.26123,0.0629883,0.950684
1535253288527122,0.285156,0.0961914,0.963379
1535253288543395,0.284668,0.0751953,1.00244
1535253288564986,0.211426,0.0268555,1.00537
1535253288586363,0.255859,0.0668945,1.03857
1535253288610072,0.197266,0.0810547,1.10107
1535253288631128,0.11377,0.319824,1.1582
1535253288647694,-0.00585938,0.302246,1.10303
1535253288670380,0.385742,0.250977,1.0415
1535253288691369,0.245605,-0.0756836,0.867676
1535253288707909,0.364258,-0.0419922,0.818359
1535253288730195,0.309082,0.114746,0.695313
1535253288744652,0.307617,0.156738,0.719238
1535253288767512,0.345215,0.0888672,0.681641
1535253288790074,0.288086,-0.121094,0.731445
1535253288811130,0.28418,-0.168945,0.72168
1535253288827672,0.381836,-0.0595703,0.639648
1535253288848729,0.393066,0.0678711,0.76416
1535253288864276,0.674805,0.00244141,1.60693
1535253288887832,0.317871,-0.219727,1.20898
1535253288909892,-0.160645,-0.276855,1.13037
1535253288931458,0.408203,0.0800781,0.900879
1535253288947491,0.273438,0.228516,0.90625
1535253288970052,0.272461,0.103516,0.988281
1535253288991440,0.256348,0.0625,0.883301
1535253289007652,0.254395,0.0429688,1.01709
1535253289030212,0.157227,-0.00292969,0.994141
1535253289044249,0.260742,0.0234375,1.01514
1535253289067814,0.270508,-0.0146484,0.96875
1535253289090374,0.318359,-0.00683594,0.94043
1535253289104409,0.297363,0.0117188,0.95166
1535253289128473,0.259277,-0.0161133,0.953125
1535253289150363,0.274902,-0.0107422,0.970703
1535253289171087,0.262695,-0.0112305,0.964844
1535253289187631,0.275879,0.00830078,0.951172
1535253289210191,0.26709,-0.00146484,0.970215
1535253289231246,0.259277,0.0229492,0.967285
1535253289247790,0.263184,0.0585938,0.953613
1535253289270351,0.264648,0.0239258,0.978516
1535253289298926,0.236816,-0.019043,0.962891
1535253289307450,0.265625,-0.00390625,0.950684
1535253289337529,0.254395,-0.0253906,0.967285
1535253289352570,0.237793,-0.0253906,0.979492
1535253289367610,0.250977,-0.00537109,0.963379
1535253289390672,0.254395,-0.0151367,0.958984
1535253289412729,0.250977,-0.0410156,0.972656
1535253289427770,0.240234,-0.0405273,0.971191
1535253289450403,0.236816,0.00927734,0.964844
1535253289472545,0.266602,0.00732422,0.973145
1535253289487005,0.254883,-0.012207,0.979004
1535253289510056,0.229004,-0.00634766,0.966309
1535253289531231,0.230957,0.0292969,0.950195
1535253289547657,0.237305,-0.00634766,0.994141
1535253289570394,0.23291,0.00195313,0.976563
1535253289591274,0.248047,0.0151367,0.952637
1535253289607880,0.227051,-0.00292969,0.970703
1535253289630407,0.27002,-0.0375977,0.984863
1535253289658956,0.260742,0.0219727,0.957031
1535253289667478,0.222168,-0.0146484,0.961914
1535253289690040,0.222168,-0.00683594,0.978516
1535253289711595,0.246094,0.0522461,0.969238
1535253289727638,0.237305,0.0751953,0.959473
1535253289750200,0.254883,0.00244141,0.967285
1535253289771253,0.259277,-0.0556641,0.973633
1535253289787822,0.26709,-0.078125,0.962402
1535253289810357,0.259277,-0.0732422,0.961426
1535253289832414,0.245117,-0.0712891,0.959961
1535253289855014,0.246094,-0.0463867,0.978516
1535253289870014,0.233887,-0.012207,0.960449
1535253289892574,0.238281,0.0185547,0.980469
1535253289907639,0.227539,0.0249023,0.981934
1535253289930174,0.235352,0.0131836,0.966797
1535253289953273,0.24707,-0.00732422,0.964355
1535253289966891,0.247559,-0.0200195,0.954102
1535253289990334,0.254395,-0.0234375,0.972168
1535253290012894,0.245605,-0.0244141,0.962402
1535253290026932,0.251465,-0.0327148,0.97998
1535253290050010,0.242676,-0.0195313,0.974121
1535253290072552,0.23877,-0.0126953,0.967285
1535253290087092,0.243164,-0.00537109,0.976074
1535253290110153,0.22998,0.0146484,0.959961
1535253290132715,0.26123,0.0336914,0.961914
1535253290147251,0.239746,0.0146484,0.955078
1535253290177835,0.246582,-0.0195313,0.974121
1535253290198888,0.245117,-0.0136719,0.971191
1535253290206910,0.23877,-0.00927734,0.97998
1535253290229971,0.22998,0.00390625,0.978027
1535253290252531,0.248535,0.00292969,0.964355
1535253290273588,0.251465,0.00292969,0.966309
1535253290290131,0.241211,0.0141602,0.96875
1535253290312692,0.239746,0.0292969,0.965332
1535253290333801,0.233398,0.0488281,0.973633
1535253290350292,0.231445,0.0180664,0.979492
1535253290372914,0.23291,0.0488281,0.962402
1535253290393406,0.246094,0.0483398,0.953613
1535253290409951,0.237305,0.0249023,0.961426
1535253290432513,0.237793,0.0200195,0.97998
1535253290453570,0.23584,0.0131836,0.975586
1535253290470111,0.234863,0.0117188,0.964844
1535253290498781,0.247559,0.0224609,0.96875
1535253290513727,0.246094,0.0175781,0.969238
1535253290530270,0.24707,0.0214844,0.97168
1535253290552913,0.25,0.0302734,0.975098
1535253290573886,0.238281,0.0444336,0.962402
1535253290590431,0.23877,0.0488281,0.96875
1535253290612488,0.241699,0.0380859,0.971191
1535253290633572,0.237793,0.0244141,0.974121
1535253290650110,0.239746,0.0424805,0.969238
1535253290672651,0.25,0.0415039,0.966309
1535253290693706,0.255371,0.0283203,0.963867
1535253290710249,0.23877,0.0415039,0.970703
1535253290732812,0.242676,0.0385742,0.977539
1535253290755443,0.232422,0.0527344,0.963867
1535253290777433,0.242188,0.0405273,0.973145
1535253290792468,0.24707,0.0371094,0.959473
1535253290815153,0.245605,0.0214844,0.974609
1535253290830069,0.236328,0.0307617,0.958984
1535253290852630,0.242188,0.0429688,0.963379
1535253290875202,0.24707,0.0288086,0.966309
1535253290890730,0.249512,0.0444336,0.963379
1535253290912500,0.247559,0.0322266,0.96875
1535253290935066,0.236328,0.0522461,0.96875
1535253290949756,0.251465,0.0405273,0.973633
1535253290972660,0.244141,0.0405273,0.952148
1535253290995219,0.244141,0.0327148,0.964844
1535253291009256,0.25293,0.0234375,0.972656
1535253291032896,0.250488,0.0268555,0.966309
1535253291055378,0.246094,0.0146484,0.960938
1535253291069416,0.246582,0.0273438,0.969727
1535253291092546,0.244629,0.046875,0.969238
1535253291115038,0.245605,0.0566406,0.978027
1535253291129655,0.248535,0.0644531,0.959473
1535253291152678,0.26416,0.050293,0.972168
1535253291175201,0.243164,0.0380859,0.967773
1535253291189779,0.25,0.0439453,0.962891
1535253291212798,0.242188,0.0390625,0.962891
1535253291235360,0.244141,0.019043,0.969238
1535253291256413,0.252441,0.0375977,0.97168
1535253291272728,0.251465,0.0488281,0.960938
1535253291295017,0.245117,0.0498047,0.953613
1535253291316078,0.25,0.0356445,0.973633
1535253291332616,0.238281,0.0283203,0.970215
1535253291355177,0.249512,0.0361328,0.96875
1535253291376232,0.254395,0.0390625,0.962891
1535253291392777,0.255371,0.0439453,0.955078
1535253291415439,0.235352,0.0356445,0.970215
1535253291436392,0.241211,0.0332031,0.976563
1535253291452497,0.23584,0.0493164,0.958984
1535253291475022,0.254395,0.0449219,0.966797
1535253291496057,0.240234,0.0424805,0.967773
1535253291512617,0.251465,0.0527344,0.973633
1535253291535156,0.251465,0.0551758,0.969727
1535253291556211,0.254883,0.0561523,0.960938
1535253291572757,0.24707,0.050293,0.970215
1535253291602916,0.243652,0.050293,0.970215
1535253291615870,0.252441,0.0610352,0.969238
1535253291632459,0.243652,0.0654297,0.959961
1535253291654974,0.243164,0.0581055,0.960449
1535253291676035,0.246094,0.0458984,0.963867
1535253291692573,0.253418,0.0405273,0.974609
1535253291715227,0.242676,0.0395508,0.96875
1535253291737694,0.241699,0.0532227,0.962402
1535253291752885,0.243164,0.0556641,0.960938
1535253291775296,0.251953,0.0463867,0.970703
1535253291797901,0.252441,0.046875,0.96582
1535253291812394,0.228516,0.0527344,0.966309
1535253291842514,0.248535,0.0581055,0.963867
1535253291864038,0.250977,0.0595703,0.96582
1535253291872053,0.255371,0.0463867,0.971191
1535253291895169,0.245605,0.0532227,0.972168
1535253291917803,0.255371,0.0512695,0.969727
1535253291932214,0.253418,0.0507813,0.962402
1535253291955365,0.250977,0.0566406,0.962891
1535253291977835,0.247559,0.0600586,0.963867
1535253291991873,0.254883,0.0556641,0.966797
1535253292015438,0.251953,0.0585938,0.962402
1535253292037996,0.254395,0.0488281,0.957031
1535253292052032,0.248047,0.0473633,0.967773
1535253292075092,0.253906,0.0556641,0.960449
1535253292097653,0.253418,0.0551758,0.964844
1535253292112260,0.243164,0.0595703,0.964355
1535253292135323,0.24707,0.0698242,0.971191
1535253292157526,0.259766,0.0644531,0.961914
1535253292171856,0.250488,0.0473633,0.969727
1535253292195412,0.241699,0.0541992,0.971191
1535253292217976,0.253906,0.0473633,0.963379
1535253292239029,0.260254,0.0585938,0.962891
1535253292255279,0.256836,0.0493164,0.967773
1535253292277632,0.253418,0.0488281,0.971191
1535253292298686,0.243652,0.0678711,0.961914
1535253292314229,0.263672,0.0742188,0.960938
1535253292337800,0.255859,0.0546875,0.963867
1535253292358878,0.248535,0.0615234,0.962402
1535253292375403,0.254395,0.0761719,0.966797
1535253292397953,0.251465,0.0654297,0.958496
1535253292420515,0.266602,0.0600586,0.961426
1535253292441577,0.254395,0.0517578,0.960938
1535253292457752,0.257324,0.059082,0.969727
1535253292478667,0.250488,0.0698242,0.964355
1535253292495399,0.255371,0.0649414,0.959961
1535253292517903,0.261719,0.0688477,0.967773
1535253292538829,0.250488,0.0727539,0.963379
1535253292555374,0.255859,0.0688477,0.967285
1535253292577428,0.255371,0.0605469,0.959473
1535253292599001,0.260254,0.0541992,0.964844
1535253292615040,0.254883,0.0693359,0.966309
1535253292637597,0.248047,0.0639648,0.967773
1535253292658995,0.251465,0.0698242,0.964355
1535253292675192,0.258789,0.0581055,0.962402
1535253292697751,0.253418,0.0600586,0.964844
1535253292720310,0.256836,0.0737305,0.960449
1535253292735347,0.26123,0.0551758,0.964355
1535253292757924,0.25293,0.0581055,0.962402
1535253292780468,0.257813,0.0795898,0.958496
1535253292795009,0.26123,0.0722656,0.957031
1535253292817576,0.246582,0.0649414,0.964844
1535253292840133,0.24707,0.0595703,0.969727
1535253292854791,0.253906,0.0561523,0.96875
1535253292877853,0.267578,0.0654297,0.955566
1535253292900411,0.25293,0.0581055,0.962891
1535253292914446,0.245117,0.0708008,0.967285
1535253292938015,0.255371,0.0791016,0.963867
1535253292960105,0.253906,0.0698242,0.964355
1535253292974740,0.251465,0.0625,0.960938
1535253292997768,0.257324,0.0615234,0.961914
1535253293020306,0.257813,0.0620117,0.96582
1535253293034347,0.249023,0.0698242,0.959473
1535253293057409,0.26416,0.0654297,0.960938
1535253293079965,0.256836,0.065918,0.966797
1535253293094551,0.258301,0.0712891,0.967285
1535253293117564,0.255859,0.0683594,0.95166
1535253293140126,0.262695,0.0668945,0.958008
1535253293161179,0.25,0.0639648,0.964844
1535253293177724,0.255859,0.059082,0.966309
1535253293200324,0.253906,0.0693359,0.973145
1535253293221337,0.257324,0.0698242,0.963867
1535253293244959,0.258301,0.0639648,0.957031
1535253293260052,0.25293,0.0605469,0.95752
1535253293281558,0.251465,0.0693359,0.967285
1535253293297769,0.255859,0.0791016,0.963867
1535253293320186,0.257324,0.0693359,0.958496
1535253293341324,0.263672,0.0654297,0.962402
1535253293357760,0.255371,0.0605469,0.964844
1535253293380317,0.257813,0.0742188,0.959961
1535253293385340,0.259277,0.0737305,0.961426
1535253293407891,0.255859,0.0673828,0.95752
1535253293423433,0.255859,0.0620117,0.96875
1535253293445493,0.251953,0.0703125,0.961426
1535253293468052,0.256348,0.0776367,0.960449
1535253293483092,0.256836,0.0654297,0.956055
1535253293507167,0.257324,0.0620117,0.963867
1535253293530722,0.257324,0.0561523,0.960449
1535253293544646,0.260254,0.0712891,0.970703
1535253293565810,0.255859,0.0722656,0.958008
1535253293587974,0.25,0.0703125,0.959961
1535253293602911,0.253906,0.059082,0.965332
1535253293625472,0.258301,0.0800781,0.964355
1535253293648059,0.263184,0.0678711,0.958496
1535253293663073,0.258301,0.0664063,0.958008
1535253293685649,0.251953,0.0654297,0.967285
1535253293708250,0.251465,0.0693359,0.959961
1535253293723244,0.26709,0.0756836,0.963867
1535253293745335,0.256836,0.0756836,0.956055
1535253293768428,0.255371,0.0615234,0.963867
1535253293782995,0.260742,0.0698242,0.97168
1535253293805548,0.252441,0.0668945,0.963379
1535253293828258,0.260742,0.0639648,0.958008
1535253293843149,0.253906,0.0742188,0.962402
1535253293865713,0.262207,0.0654297,0.960938
1535253293888362,0.251465,0.0742188,0.961426
1535253293903010,0.250977,0.0688477,0.962891
1535253293925569,0.250977,0.0639648,0.956055
1535253293948027,0.255371,0.0712891,0.965332
1535253293963067,0.259766,0.0625,0.966309
1535253293985673,0.256836,0.0756836,0.959473
1535253294008191,0.255371,0.0600586,0.952637
1535253294023231,0.261719,0.0678711,0.969727
1535253294045792,0.25293,0.065918,0.958008
1535253294068361,0.251953,0.0698242,0.960938
1535253294084893,0.262695,0.0761719,0.95752
1535253294105454,0.258301,0.0605469,0.965332
1535253294128010,0.251953,0.0708008,0.966797
1535253294143125,0.25293,0.0717773,0.960449
1535253294168616,0.259277,0.0668945,0.958496
1535253294188199,0.256836,0.0678711,0.960449
1535253294203207,0.261719,0.0566406,0.963379
1535253294225271,0.255859,0.065918,0.966797
1535253294248386,0.258789,0.0751953,0.961914
1535253294264369,0.255859,0.0756836,0.958984
1535253294285461,0.254395,0.0595703,0.964355
1535253294308024,0.249512,0.0678711,0.954102
1535253294324535,0.256836,0.0698242,0.965332
1535253294353140,0.253418,0.0639648,0.962402
1535253294368189,0.263672,0.0649414,0.958496
1535253294386193,0.263672,0.0551758,0.967773
1535253294405746,0.248535,0.0664063,0.962891
1535253294427803,0.256836,0.0722656,0.962891
1535253294444349,0.248047,0.0791016,0.963379
1535253294465406,0.256348,0.0732422,0.958984
1535253294487963,0.255859,0.065918,0.961914
1535253294504516,0.256836,0.0639648,0.962402
1535253294525687,0.263184,0.0600586,0.964844
1535253294548124,0.258301,0.0600586,0.966797
1535253294566174,0.252441,0.0703125,0.963867
1535253294585730,0.257324,0.0742188,0.961914
1535253294608290,0.254395,0.0766602,0.958008
1535253294625960,0.259277,0.0615234,0.955566
1535253294645388,0.258789,0.0625,0.96582
1535253294675512,0.251465,0.0620117,0.966309
1535253294685994,0.256348,0.0737305,0.962891
1535253294705589,0.259277,0.0620117,0.962891
1535253294728147,0.253418,0.0605469,0.966797
1535253294746164,0.258789,0.065918,0.95166
1535253294765740,0.255859,0.0688477,0.956543
1535253294788264,0.259277,0.0727539,0.963867
1535253294805811,0.256348,0.0634766,0.955566
1535253294825935,0.257324,0.0625,0.96875
1535253294847926,0.245117,0.0717773,0.963867
1535253294865972,0.255371,0.0703125,0.963379
1535253294885552,0.256836,0.0581055,0.960449
1535253294908110,0.263672,0.0776367,0.959961
1535253294926242,0.256836,0.0698242,0.959473
1535253294945789,0.255371,0.0576172,0.963867
1535253294967883,0.250977,0.0600586,0.967285
1535253294985897,0.25293,0.0634766,0.966309
1535253295005448,0.258301,0.0717773,0.960938
1535253295028008,0.256836,0.0693359,0.958984
1535253295046058,0.254883,0.0688477,0.960449
1535253295065733,0.265625,0.0727539,0.959473
1535253295088304,0.246582,0.0678711,0.965332
1535253295105827,0.259766,0.0668945,0.966797
1535253295125408,0.261719,0.0649414,0.960938
1535253295147933,0.254883,0.0615234,0.963379
1535253295165982,0.26123,0.0688477,0.963379
1535253295193091,0.252441,0.0761719,0.95752
1535253295208149,0.259766,0.0737305,0.962402
1535253295225641,0.253906,0.0771484,0.963379
1535253295247197,0.257324,0.0585938,0.963867
1535253295268324,0.256348,0.0678711,0.964844
1535253295285801,0.257813,0.0708008,0.973633
1535253295306948,0.256836,0.0678711,0.95752
1535253295328044,0.255859,0.0644531,0.967285
1535253295346043,0.254883,0.0698242,0.964844
1535253295367098,0.254883,0.0751953,0.960449
1535253295388159,0.260254,0.0742188,0.958008
1535253295406160,0.263184,0.0693359,0.966797
1535253295426756,0.25,0.0698242,0.960938
1535253295448315,0.253906,0.0693359,0.964844
1535253295473998,0.254395,0.0668945,0.963867
1535253295492973,0.249023,0.0610352,0.965332
1535253295508023,0.26123,0.0664063,0.962891
1535253295526075,0.253418,0.0688477,0.962891
1535253295548771,0.258789,0.0698242,0.957031
1535253295568134,0.255371,0.0625,0.95459
1535253295586186,0.255371,0.0649414,0.964844
1535253295608741,0.261719,0.0727539,0.965332
1535253295628297,0.257813,0.0668945,0.958984
1535253295645977,0.257813,0.0644531,0.967773
1535253295668401,0.254395,0.0673828,0.962891
1535253295687952,0.255371,0.065918,0.958008
1535253295706000,0.258789,0.0673828,0.96582
1535253295729105,0.260742,0.0664063,0.963379
1535253295748114,0.254395,0.0664063,0.962891
1535253295772176,0.253906,0.0722656,0.961914
1535253295788278,0.260742,0.0708008,0.955566
1535253295808312,0.254883,0.0615234,0.963379
1535253295825824,0.24707,0.0703125,0.967773
1535253295848379,0.262207,0.0791016,0.964355
1535253295867932,0.262207,0.0654297,0.961914
1535253295885980,0.261719,0.0610352,0.961426
1535253295908590,0.25293,0.0664063,0.964844
1535253295928095,0.248535,0.0820313,0.957031
1535253295946138,0.253906,0.0751953,0.959961
1535253295968705,0.257324,0.065918,0.958984
1535253295987746,0.257324,0.0673828,0.957031
1535253296006325,0.260742,0.0678711,0.96875
1535253296028858,0.255371,0.0664063,0.963379
1535253296050968,0.257324,0.0644531,0.95752
1535253296066008,0.251953,0.0712891,0.955566
1535253296088569,0.257813,0.0693359,0.958008
1535253296109572,0.257813,0.0664063,0.96875
1535253296126123,0.255371,0.0678711,0.956543
1535253296148677,0.261719,0.065918,0.965332
1535253296169236,0.25293,0.0703125,0.963867
1535253296185831,0.253418,0.0751953,0.961426
1535253296208365,0.262207,0.0664063,0.958984
1535253296229687,0.251465,0.0703125,0.958008
1535253296245999,0.251465,0.065918,0.970703
1535253296268495,0.255859,0.0717773,0.961426
1535253296289552,0.259277,0.0732422,0.961914
1535253296305093,0.262207,0.0673828,0.957031
1535253296328154,0.257813,0.0708008,0.964355
1535253296348710,0.258789,0.065918,0.966797
1535253296365252,0.257813,0.0751953,0.958984
1535253296387853,0.255371,0.0688477,0.959473
1535253296408910,0.252441,0.0722656,0.958496
1535253296431428,0.252441,0.0727539,0.963379
1535253296447471,0.258789,0.0732422,0.956055
1535253296470286,0.258789,0.0668945,0.96875
1535253296485224,0.260742,0.0629883,0.962402
1535253296507632,0.248047,0.0708008,0.968262
1535253296530191,0.251953,0.0703125,0.963379
1535253296544229,0.263184,0.0717773,0.965332
1535253296567797,0.249023,0.0722656,0.962891
1535253296606400,0.251465,0.0703125,0.958984
1535253296618934,0.259766,0.0668945,0.963867
1535253296627454,0.266113,0.0703125,0.96875
1535253296650011,0.252441,0.0712891,0.955078
1535253296664550,0.255371,0.0639648,0.964844
1535253296687696,0.250488,0.0732422,0.96582
1535253296710553,0.261719,0.0786133,0.952148
1535253296724297,0.257813,0.0712891,0.953613
1535253296747854,0.254883,0.0644531,0.96582
1535253296770144,0.258301,0.0668945,0.964355
1535253296784455,0.258789,0.0683594,0.960449
1535253296807515,0.255859,0.0776367,0.961914
1535253296830074,0.259766,0.0717773,0.962402
1535253296844698,0.255371,0.0698242,0.96582
1535253296867678,0.249023,0.0678711,0.964355
1535253296890233,0.257813,0.0664063,0.959473
1535253296911288,0.254883,0.0732422,0.962402
1535253296927833,0.25293,0.0737305,0.957031
1535253296950392,0.256836,0.0683594,0.967285
1535253296971474,0.253906,0.0678711,0.962891
1535253296987736,0.266602,0.0737305,0.950684
1535253297010056,0.257813,0.0693359,0.966309
1535253297031110,0.251465,0.0688477,0.972656
1535253297047652,0.255859,0.0761719,0.958984
1535253297070435,0.256348,0.0732422,0.958496
1535253297091302,0.257813,0.0742188,0.959473
1535253297107813,0.256348,0.0751953,0.967285
1535253297129878,0.25,0.0693359,0.964844
1535253297158446,0.262207,0.0756836,0.960938
1535253297167632,0.257813,0.0756836,0.95752
1535253297190030,0.255859,0.0698242,0.963867
1535253297211137,0.258301,0.0664063,0.966797
1535253297227682,0.250488,0.065918,0.963867
1535253297250190,0.26123,0.074707,0.961426
1535253297271291,0.251465,0.0703125,0.961426
1535253297287796,0.258789,0.0776367,0.960938
1535253297310353,0.253418,0.074707,0.964355
1535253297331407,0.254395,0.0605469,0.965332
1535253297347953,0.256348,0.0717773,0.964355
1535253297370096,0.25,0.0698242,0.966309
1535253297391081,0.262695,0.0727539,0.961914
1535253297413663,0.253418,0.0649414,0.961914
1535253297437690,0.254395,0.0722656,0.961426
1535253297452842,0.255859,0.0849609,0.96582
1535253297467917,0.256836,0.0732422,0.957031
1535253297490570,0.26123,0.0688477,0.95752
1535253297513006,0.250488,0.0678711,0.963379
1535253297527932,0.257813,0.0751953,0.964355
1535253297549988,0.259766,0.0791016,0.958496
1535253297572548,0.256348,0.0717773,0.960449
1535253297587186,0.253418,0.0664063,0.958496
1535253297610151,0.255371,0.0698242,0.959961
1535253297632712,0.260254,0.0717773,0.963867
1535253297647246,0.255859,0.0712891,0.961426
1535253297670309,0.249512,0.0805664,0.962402
1535253297692870,0.259277,0.0634766,0.96875
1535253297713930,0.253418,0.0654297,0.960938
1535253297729969,0.254883,0.0751953,0.964844
1535253297752528,0.249023,0.0800781,0.952637
1535253297767189,0.26416,0.0766602,0.971191
1535253297790128,0.250977,0.0712891,0.964844
1535253297812686,0.254883,0.0693359,0.957031
1535253297827091,0.266602,0.0732422,0.966797
1535253297850286,0.248535,0.0698242,0.958008
1535253297872621,0.265625,0.0795898,0.95752
1535253297893907,0.249023,0.0795898,0.960449
1535253297910448,0.261719,0.0712891,0.962402
1535253297932654,0.254395,0.0776367,0.966797
1535253297961080,0.250488,0.0737305,0.959961
1535253297971611,0.260254,0.0834961,0.960449
1535253297992665,0.254883,0.0693359,0.963867
1535253298013761,0.255371,0.0717773,0.962402
1535253298030292,0.253906,0.0751953,0.960938
1535253298052862,0.254883,0.0708008,0.961426
1535253298073881,0.257813,0.0732422,0.963867
1535253298089926,0.254883,0.0727539,0.959473
1535253298112521,0.263184,0.0737305,0.969238
1535253298133623,0.261719,0.0737305,0.959961
1535253298150139,0.255859,0.0761719,0.957031
1535253298172646,0.250977,0.065918,0.965332
1535253298193701,0.250488,0.078125,0.964844
1535253298210246,0.250977,0.0830078,0.95166
1535253298232805,0.269531,0.0776367,0.966309
1535253298261424,0.246582,0.059082,0.960449
1535253298269907,0.268066,0.0756836,0.970703
1535253298292464,0.242188,0.0703125,0.958984
1535253298313570,0.265625,0.0795898,0.95752
1535253298330071,0.261719,0.0844727,0.956543
1535253298352624,0.255859,0.0673828,0.957031
1535253298375185,0.264648,0.0844727,0.972168
1535253298390224,0.25,0.0708008,0.95752
1535253298412948,0.262207,0.0795898,0.965332
1535253298435369,0.246582,0.0688477,0.970215
1535253298449981,0.25293,0.0620117,0.964355
1535253298472448,0.260254,0.0825195,0.966309
1535253298495008,0.253906,0.0756836,0.95459
1535253298510043,0.254883,0.0776367,0.960938
1535253298532604,0.254395,0.0737305,0.958008
1535253298561222,0.259277,0.0712891,0.958984
1535253298569701,0.256836,0.0727539,0.955566
1535253298592764,0.254883,0.0698242,0.963379
1535253298615323,0.25,0.0756836,0.962402
1535253298629363,0.254883,0.0844727,0.960938
1535253298652421,0.255859,0.0810547,0.952148
1535253298675110,0.265137,0.0703125,0.958984
1535253298689519,0.255859,0.0629883,0.966797
1535253298712773,0.248535,0.0683594,0.957031
1535253298735278,0.258301,0.0849609,0.972656
1535253298749675,0.25293,0.0742188,0.959473
1535253298772882,0.259766,0.0737305,0.95459
1535253298794939,0.250488,0.081543,0.964355
1535253298823513,0.245117,0.0727539,0.960449
1535253298832539,0.264648,0.0761719,0.964355
1535253298855190,0.25293,0.0629883,0.960449
1535253298876192,0.257324,0.0673828,0.963379
1535253298892747,0.265137,0.0869141,0.962402
1535253298915258,0.247559,0.0678711,0.957031
1535253298936352,0.263672,0.0698242,0.972656
1535253298952939,0.246582,0.0703125,0.95752
1535253298975003,0.260742,0.0825195,0.964844
1535253298996555,0.257813,0.081543,0.958008
1535253299012597,0.257813,0.0668945,0.966309
1535253299035158,0.25293,0.0698242,0.965332
1535253299056327,0.259277,0.0703125,0.964355
1535253299078772,0.257813,0.0800781,0.958008
1535253299102837,0.258789,0.0766602,0.95459
1535253299116373,0.257813,0.0742188,0.96582
1535253299132917,0.250977,0.0771484,0.956055
1535253299154976,0.259766,0.0800781,0.963379
1535253299176037,0.265137,0.0698242,0.967773
1535253299192674,0.249512,0.0537109,0.970703
1535253299215135,0.252441,0.0717773,0.981445
1535253299236191,0.265625,0.0947266,0.962891
1535253299252737,0.276367,0.0864258,0.945313
1535253299275299,0.262207,0.0898438,0.96875
1535253299297854,0.249023,0.0864258,0.970703
1535253299312651,0.255859,0.059082,0.976563
1535253299335455,0.259766,0.0424805,0.984375
1535253299357613,0.262207,0.0722656,0.973145
1535253299380131,0.258301,0.0654297,0.970215
1535253299395114,0.25293,0.0322266,0.975586
1535253299417796,0.259277,0.0732422,0.950684
1535253299431712,0.294922,0.0844727,0.956543
1535253299455275,0.256836,0.0810547,0.952637
1535253299477835,0.325684,0.0839844,0.945801
1535253299491871,0.275879,0.0771484,0.958008
1535253299514933,0.299316,0.134277,0.942383
1535253299537493,0.279297,0.134766,0.943359
1535253299558552,0.279785,0.143555,0.955078
1535253299575092,0.282227,0.151367,0.959473
1535253299597868,0.313477,0.101074,0.977051
1535253299612199,0.253418,0.107422,0.942871
1535253299635253,0.259277,0.152344,0.935547
1535253299658350,0.227539,0.12793,0.938965
1535253299671947,0.256836,0.107422,0.942383
1535253299694942,0.245605,0.100586,0.925781
1535253299717573,0.24707,0.104004,0.927734
1535253299732041,0.260254,0.109863,0.929688
1535253299755338,0.27002,0.117188,0.936523
1535253299777661,0.251953,0.0649414,0.95459
1535253299798756,0.263184,0.112305,0.972168
1535253299815260,0.270996,0.144043,0.964355
1535253299837820,0.260742,0.127441,0.958984
1535253299858878,0.273438,0.128418,0.969238
1535253299874921,0.248535,0.118164,0.960449
1535253299897485,0.267578,0.151367,0.949707
1535253299919037,0.260742,0.143066,0.952148
1535253299935080,0.256348,0.12793,0.952637
1535253299957651,0.260254,0.135742,0.950195
1535253299978696,0.256836,0.134766,0.95459
1535253299995239,0.258301,0.119141,0.964844
1535253300017800,0.270508,0.116699,0.960938
1535253300038854,0.272949,0.128418,0.958008
1535253300055399,0.278809,0.106445,0.95459
1535253300077458,0.26709,0.104492,0.96875
1535253300098514,0.274414,0.0976563,0.959473
1535253300115058,0.282715,0.0952148,0.962891
1535253300137714,0.289551,0.103027,0.967285
1535253300166195,0.268555,0.112305,0.96582
1535253300175295,0.260254,0.10791,0.960449
1535253300198282,0.271973,0.11377,0.95752
1535253300218836,0.269531,0.122559,0.950195
1535253300235379,0.266602,0.123047,0.935059
1535253300257945,0.275879,0.100098,0.952148
1535253300279999,0.270508,0.0805664,0.965332
1535253300295040,0.261719,0.115723,0.959473
1535253300317598,0.283691,0.114258,0.958984
1535253300339864,0.26416,0.106934,0.961426
1535253300354904,0.259766,0.102539,0.961914
1535253300377570,0.263672,0.0991211,0.947266
1535253300400029,0.262695,0.113281,0.950684
1535253300414564,0.27002,0.10791,0.958496
1535253300437625,0.286621,0.106934,0.980469
1535253300466308,0.255859,0.103027,0.967285
1535253300474726,0.244141,0.108398,0.967285
1535253300497787,0.258301,0.131348,0.953125
1535253300520347,0.256836,0.114258,0.96582
1535253300541401,0.262695,0.104004,0.962891
1535253300557448,0.283203,0.112305,0.947754
1535253300580004,0.271973,0.103027,0.961426
1535253300594543,0.247559,0.0986328,0.949219
1535253300617603,0.255859,0.109375,0.950195
1535253300640164,0.280762,0.114258,0.947266
1535253300654703,0.258789,0.097168,0.960938
1535253300677765,0.240723,0.0756836,0.973145
1535253300700324,0.250488,0.0922852,0.956055
1535253300722883,0.257813,0.106445,0.95166
1535253300737931,0.255371,0.103516,0.959961
1535253300766030,0.241699,0.090332,0.953613
1535253300781037,0.233398,0.105957,0.938477
1535253300803597,0.248535,0.125977,0.945313
1535253300820143,0.242676,0.119141,0.947754
1535253300841259,0.220215,0.105469,0.956055
1535253300857788,0.216309,0.124023,0.954102
1535253300880307,0.244141,0.141113,0.957031
1535253300901357,0.261719,0.117676,0.972656
1535253300917400,0.246582,0.0854492,0.99707
1535253300940462,0.233887,0.117676,0.98291
1535253300961546,0.241211,0.146973,0.972656
1535253300977060,0.246094,0.150879,0.968262
1535253301000129,0.216797,0.170898,0.978027
1535253301022681,0.204102,0.162109,0.950684
1535253301045246,0.23584,0.189453,0.897461
1535253301060281,0.246094,0.229492,0.883789
1535253301081450,0.255859,0.237305,0.923828
1535253301096881,0.266602,0.245605,0.935547
1535253301119968,0.247559,0.193359,0.979004
1535253301141499,0.244629,0.217773,0.988281
1535253301157040,0.253418,0.253418,0.955078
1535253301180103,0.229492,0.321289,0.897461
1535253301202660,0.214844,0.327637,0.904785
1535253301216701,0.163574,0.44043,0.936035
1535253301240317,0.132324,0.463867,0.914063
1535253301262822,0.124023,0.455566,0.913574
1535253301277190,0.104492,0.524414,0.861816
1535253301300078,0.0454102,0.571289,0.854004
1535253301322552,-0.0107422,0.67627,0.828613
1535253301345233,-0.015625,0.716797,0.779297
1535253301360151,-0.0107422,0.716309,0.717773
1535253301382715,-0.0253906,0.71875,0.676758
1535253301403773,-0.112305,0.75,0.59668
1535253301420309,-0.157227,0.790527,0.555176
1535253301442873,-0.153809,0.775391,0.506836
1535253301463940,-0.173828,0.821777,0.470703
1535253301479973,-0.286133,0.833984,0.443359
1535253301502535,-0.352051,0.850586,0.476074
1535253301525224,-0.366699,0.900391,0.392578
1535253301540130,-0.364258,0.866699,0.416504
1535253301562690,-0.42041,0.741699,0.495605
1535253301583743,-0.469727,0.679199,0.493652
1535253301600290,-0.461426,0.685547,0.5
1535253301622851,-0.458984,0.726074,0.474609
1535253301645408,-0.459961,0.707031,0.480957
1535253301660771,-0.474609,0.66748,0.503418
1535253301682511,-0.494141,0.650879,0.496582
1535253301703563,-0.48877,0.675781,0.47998
1535253301720107,-0.480469,0.66748,0.488281
1535253301742670,-0.461426,0.662598,0.49707
1535253301763725,-0.468262,0.651367,0.503418
1535253301780270,-0.466797,0.660645,0.501465
1535253301802830,-0.479492,0.675781,0.510254
1535253301823384,-0.479004,0.708496,0.507324
1535253301840429,-0.484375,0.709473,0.510742
1535253301862776,-0.48877,0.689453,0.530762
1535253301884100,-0.484375,0.666016,0.537109
1535253301899586,-0.46875,0.665527,0.544434
1535253301922647,-0.450684,0.693848,0.553223
1535253301943705,-0.444824,0.71875,0.551758
1535253301959747,-0.416504,0.712891,0.563965
1535253301982807,-0.400391,0.674805,0.57959
1535253302003985,-0.352051,0.657227,0.591309
1535253302019602,-0.327148,0.677734,0.610352
1535253302042473,-0.274902,0.650879,0.684082
1535253302063524,-0.211426,0.658691,0.705566
1535253302079740,-0.197266,0.608398,0.725098
1535253302110146,-0.197754,0.563477,0.724121
1535253302123721,-0.141602,0.595703,0.680176
1535253302155266,-0.0874023,0.707031,0.651855
1535253302162786,-0.0952148,0.744629,0.649414
1535253302184921,-0.10498,0.744629,0.65332
1535253302199382,-0.126465,0.714844,0.687012
1535253302222459,-0.133789,0.696289,0.69873
1535253302245003,-0.112305,0.669922,0.714844
1535253302267564,-0.0791016,0.6875,0.699219
1535253302282607,-0.0908203,0.722656,0.672363
1535253302305164,-0.0883789,0.768066,0.659668
1535253302326222,-0.0791016,0.762695,0.671875
1535253302342262,-0.0390625,0.692871,0.725098
1535253302365324,0.00878906,0.638672,0.740234
1535253302386380,0.0400391,0.603027,0.737793
1535253302402444,0.0629883,0.611816,0.734863
1535253302424984,0.107422,0.644531,0.693359
1535253302446040,0.150391,0.689941,0.669434
1535253302462583,0.161133,0.702637,0.677734
1535253302485144,0.164551,0.687988,0.72168
1535253302506304,0.166992,0.642578,0.744629
1535253302522744,0.162109,0.626465,0.744141
1535253302545302,0.153809,0.687988,0.714844
1535253302566360,0.160645,0.743164,0.707031
1535253302582401,0.145508,0.756348,0.713379
1535253302604960,0.131836,0.724609,0.71582
1535253302626555,0.125977,0.702148,0.734375
1535253302642642,0.120117,0.688965,0.73584
1535253302665189,0.13623,0.691895,0.729492
1535253302686285,0.146484,0.69043,0.711426
1535253302702310,0.147949,0.679199,0.70166
1535253302725283,0.168457,0.651367,0.70752
1535253302746444,0.179688,0.651367,0.693359
1535253302762383,0.197754,0.625488,0.691895
1535253302785442,0.219727,0.610352,0.687012
1535253302806541,0.228027,0.645508,0.671875
1535253302822540,0.22168,0.656738,0.700195
1535253302828164,0.177246,0.684082,0.712891
1535253302850620,0.155762,0.662109,0.729004
1535253302873261,0.119629,0.621094,0.744141
1535253302888214,0.0849609,0.619141,0.780273
1535253302910395,0.0585938,0.608887,0.802246
1535253302941414,0.0463867,0.587891,0.82666
1535253302949430,0.0332031,0.569824,0.86084
1535253302970466,0.043457,0.554688,0.855469
1535253302993027,0.0629883,0.558105,0.849121
1535253303009569,0.0795898,0.567383,0.819336
1535253303030744,0.108887,0.597168,0.801758
1535253303053274,0.131348,0.580566,0.806641
1535253303070768,0.126953,0.571289,0.808594
1535253303090812,0.116211,0.57959,0.803711
1535253303113350,0.12207,0.61084,0.790527
1535253303129634,0.139648,0.603516,0.784668
1535253303150451,0.140625,0.588867,0.776367
1535253303173004,0.13623,0.585938,0.787598
1535253303188085,0.136719,0.575684,0.780273
1535253303210605,0.132324,0.578613,0.77832
1535253303233167,0.137695,0.582031,0.782227
1535253303248205,0.137695,0.567383,0.784668
1535253303278286,0.124023,0.583984,0.771484
1535253303293356,0.121094,0.589844,0.774414
1535253303308370,0.123535,0.601563,0.770508
1535253303330940,0.128906,0.597656,0.765137
1535253303353037,0.126465,0.591797,0.77002
1535253303371033,0.122559,0.603516,0.766602
1535253303390687,0.144531,0.602051,0.762695
1535253303413143,0.137207,0.598145,0.77832
1535253303428182,0.0981445,0.630859,0.76123
