timestamp,x,y,z
1535251498483228,0.00732422,-0.541504,0.875977
1535251498507292,-0.00537109,-0.546875,0.860352
1535251498522367,0.0307617,-0.551758,0.858398
1535251498543424,0.0336914,-0.560059,0.875977
1535251498566986,0.0390625,-0.553711,0.857422
1535251498582026,0.0336914,-0.553711,0.86084
1535251498604587,0.0361328,-0.555664,0.865723
1535251498657880,0.043457,-0.55127,0.880371
1535251498658929,0.0478516,-0.573242,0.866699
1535251498659733,0.027832,-0.591797,0.870605
1535251498671811,0.0141602,-0.535645,0.868164
1535251498695356,0.0209961,-0.509277,0.886719
1535251498709418,0.0351563,-0.547363,0.871094
1535251498732954,0.0380859,-0.562988,0.85791
1535251498778576,0.0336914,-0.542969,0.853027
1535251498779516,0.0327148,-0.550781,0.856445
1535251498793898,0.0478516,-0.563477,0.862305
1535251498813168,0.0429688,-0.570313,0.866211
1535251498829712,0.0361328,-0.538574,0.86084
1535251498853830,0.034668,-0.538574,0.867188
1535251498873329,0.0229492,-0.547363,0.867676
1535251498891377,0.012207,-0.553223,0.87207
1535251498913935,0.0224609,-0.545898,0.865723
1535251498933488,0.046875,-0.539551,0.862793
1535251498951202,0.0498047,-0.529297,0.880859
1535251498973595,0.0527344,-0.534668,0.883301
1535251498993157,0.0507813,-0.558105,0.866699
1535251499011243,0.0507813,-0.560059,0.878906
1535251499033755,0.0366211,-0.58252,0.861816
1535251499053307,0.0327148,-0.549805,0.867676
1535251499071355,0.0283203,-0.554688,0.878418
1535251499099931,0.0200195,-0.563477,0.874512
1535251499113526,0.0366211,-0.532227,0.879395
1535251499138607,0.0400391,-0.532715,0.874512
1535251499153573,0.0390625,-0.557129,0.857422
1535251499174640,0.0493164,-0.566406,0.868164
1535251499191453,0.0541992,-0.557129,0.890625
1535251499213902,0.0239258,-0.549805,0.884766
1535251499234914,0.0292969,-0.541992,0.868164
1535251499251334,0.03125,-0.54541,0.871094
1535251499273894,0.0117188,-0.554688,0.875
1535251499294950,0.0141602,-0.540039,0.873047
1535251499310993,0.0205078,-0.535645,0.875977
1535251499333683,0.0258789,-0.545898,0.875488
1535251499354608,0.03125,-0.543457,0.857422
1535251499372676,0.0302734,-0.549805,0.860352
1535251499393732,0.0258789,-0.558105,0.86084
1535251499414829,0.0449219,-0.55957,0.866699
1535251499435862,0.0327148,-0.566406,0.866699
1535251499453935,0.027832,-0.53125,0.884277
1535251499476112,0.00878906,-0.526855,0.882813
1535251499496047,-0.00537109,-0.555664,0.894043
1535251499519902,0.00976563,-0.555664,0.887207
1535251499534651,0.0131836,-0.523926,0.894531
1535251499557237,0.0283203,-0.527832,0.853027
1535251499579798,0.00439453,-0.554688,0.871094
1535251499596341,0.0273438,-0.557129,0.850586
1535251499615895,0.0683594,-0.469727,0.905762
1535251499633440,0.0170898,-0.48291,0.921387
1535251499656502,-0.0131836,-0.532715,0.891113
1535251499676054,0.0117188,-0.598145,0.833008
1535251499694102,0.0371094,-0.524902,0.864258
1535251499723680,0.00732422,-0.469727,0.901855
1535251499736715,0.00439453,-0.473145,0.913086
1535251499760310,0.0131836,-0.589844,0.844238
1535251499782838,0.03125,-0.571289,0.836426
1535251499797878,0.0449219,-0.490234,0.899414
1535251499818936,-0.00683594,-0.525391,0.91748
1535251499835478,0.043457,-0.509766,0.90625
1535251499858038,0.0341797,-0.581543,0.88623
1535251499886613,0.0268555,-0.528809,0.898438
1535251499901152,0.00537109,-0.472168,0.938477
1535251499925216,-0.012207,-0.459961,0.923828
1535251499938752,0.00341797,-0.486816,0.89209
1535251499954795,0.0512695,-0.545898,0.868164
1535251499977857,0.0302734,-0.59668,0.866699
1535251500006433,0.0161133,-0.520996,0.884766
1535251500014955,0.00830078,-0.476563,0.910645
1535251500038016,0.00195313,-0.471191,0.898438
1535251500060576,0.0219727,-0.483398,0.887207
1535251500074614,0.0170898,-0.540039,0.869629
1535251500097675,0.0141602,-0.589355,0.867676
1535251500120606,-0.0239258,-0.595703,0.87207
1535251500134806,-0.0307617,-0.552734,0.869629
1535251500157835,-0.00585938,-0.521484,0.860352
1535251500180896,0.00878906,-0.514648,0.864258
1535251500194933,-0.00878906,-0.521973,0.871582
1535251500217997,-0.0161133,-0.534668,0.878906
1535251500240555,-0.0146484,-0.532227,0.88623
1535251500254592,-0.0107422,-0.536133,0.891602
1535251500277805,-0.0146484,-0.541992,0.898926
1535251500300214,-0.0268555,-0.527832,0.899414
1535251500314753,-0.0292969,-0.536621,0.900879
1535251500337814,-0.00683594,-0.531738,0.870605
1535251500360432,0.00244141,-0.557129,0.860352
1535251500374912,0.0126953,-0.55957,0.848145
1535251500397992,0.034668,-0.5625,0.85498
1535251500420534,0.0200195,-0.586426,0.854492
1535251500434581,-0.00634766,-0.575684,0.865234
1535251500458133,-0.0112305,-0.587402,0.873535
1535251500480368,-0.00683594,-0.59375,0.873047
1535251500501248,-0.00585938,-0.559082,0.893066
1535251500518123,-0.0717773,-0.543457,0.884277
1535251500540353,-0.0449219,-0.512695,0.913574
1535251500561466,-0.00244141,-0.533691,0.897461
1535251500577952,0.00439453,-0.533691,0.894043
1535251500600540,-0.0288086,-0.47168,0.883301
1535251500621568,-0.0292969,-0.439941,0.88623
1535251500638113,0.0253906,-0.521484,0.883301
1535251500660279,0.0322266,-0.571777,0.874512
1535251500681228,-0.00244141,-0.486328,0.885254
1535251500697845,-0.0229492,-0.441406,0.884277
1535251500720332,0.0209961,-0.483887,0.889648
1535251500742891,0.00976563,-0.544922,0.89209
1535251500758067,0.00390625,-0.541016,0.901367
1535251500780492,-0.0322266,-0.51709,0.873047
1535251500801546,0.000976563,-0.475098,0.879883
1535251500818090,0.0209961,-0.538086,0.881836
1535251500840651,0.0307617,-0.556641,0.904785
1535251500861205,0.00732422,-0.53125,0.896484
1535251500877839,-0.00488281,-0.464355,0.906738
1535251500900312,0.0219727,-0.533203,0.912109
1535251500921532,-0.00439453,-0.59375,0.881836
1535251500937408,-0.0175781,-0.545898,0.894043
1535251500960471,0.000488281,-0.477539,0.927734
1535251500983031,0.00146484,-0.454102,0.902832
1535251500998121,0.0258789,-0.482422,0.871582
1535251501020129,0.0385742,-0.509277,0.887695
1535251501042688,0.03125,-0.524902,0.90918
1535251501057736,0.0327148,-0.516602,0.886719
1535251501080289,0.0249023,-0.491211,0.905762
1535251501102848,-0.00195313,-0.50293,0.882813
1535251501117390,0.00244141,-0.547363,0.85791
1535251501140452,0.00732422,-0.546387,0.898926
1535251501163057,-0.00683594,-0.531738,0.880371
1535251501177046,0.0170898,-0.494141,0.85791
1535251501200608,0.0214844,-0.494629,0.878418
1535251501223169,0,-0.524414,0.895996
1535251501237206,-0.000488281,-0.555176,0.871582
1535251501260269,0.00292969,-0.555176,0.883789
1535251501290350,-0.0224609,-0.549805,0.889648
1535251501297368,-0.0258789,-0.529297,0.88916
1535251501320428,-0.0219727,-0.519043,0.902832
1535251501349123,-0.0239258,-0.520996,0.907227
1535251501357571,-0.0361328,-0.527832,0.910645
1535251501387670,-0.0229492,-0.496582,0.910156
1535251501403148,-0.0146484,-0.488281,0.89209
1535251501417241,-0.0268555,-0.489258,0.900391
1535251501440248,-0.00488281,-0.568359,0.856934
1535251501463312,-0.0117188,-0.541504,0.852051
1535251501484386,-0.0170898,-0.547363,0.867188
1535251501500412,-0.0292969,-0.554688,0.877441
1535251501522998,-0.012207,-0.539551,0.876465
1535251501544022,-0.027832,-0.535156,0.888672
1535251501560572,-0.0356445,-0.486328,0.909668
1535251501583126,-0.0380859,-0.447266,0.930176
1535251501604329,-0.0351563,-0.48877,0.919922
1535251501621228,-0.00341797,-0.523438,0.896973
1535251501642793,-0.0102539,-0.569336,0.878906
1535251501663940,-0.0151367,-0.521484,0.891113
1535251501680437,-0.0078125,-0.472168,0.931152
1535251501702955,-0.0185547,-0.452637,0.933105
1535251501724001,-0.00585938,-0.436523,0.916992
1535251501740545,-0.0136719,-0.477051,0.910645
1535251501763104,-0.0234375,-0.538574,0.903809
1535251501786669,-0.0307617,-0.565918,0.895996
1535251501807725,-0.0219727,-0.529297,0.884766
1535251501830285,-0.0200195,-0.474609,0.883789
1535251501844330,-0.0141602,-0.46875,0.880859
1535251501860420,-0.0107422,-0.48584,0.892578
1535251501882946,-0.0078125,-0.51709,0.902832
1535251501904049,-0.00634766,-0.530273,0.899414
1535251501920524,-0.03125,-0.486816,0.903809
1535251501943084,-0.0371094,-0.466309,0.909668
1535251501965647,-0.0288086,-0.476563,0.902832
1535251501986699,-0.0249023,-0.506348,0.892578
1535251502002745,-0.0141602,-0.536621,0.885742
1535251502025307,-0.0131836,-0.517578,0.875977
1535251502040343,0.00537109,-0.511719,0.876953
1535251502062909,-0.00146484,-0.519531,0.866699
1535251502085471,0.00585938,-0.539063,0.877441
1535251502100002,-0.00585938,-0.556641,0.891113
1535251502123065,-0.00146484,-0.550781,0.894043
1535251502145623,-0.000488281,-0.543945,0.902344
1535251502159746,-0.0185547,-0.549805,0.901367
1535251502190775,-0.0366211,-0.558594,0.890625
1535251502205337,-0.0390625,-0.5625,0.870117
1535251502219826,-0.0332031,-0.567383,0.843262
1535251502242882,-0.00683594,-0.562012,0.861816
1535251502265447,-0.0112305,-0.538574,0.872559
1535251502288005,-0.0361328,-0.508301,0.876465
1535251502303042,-0.0307617,-0.48291,0.87793
1535251502325603,0.00341797,-0.505371,0.893066
1535251502339642,0,-0.527832,0.894531
1535251502363202,-0.0307617,-0.479492,0.910645
1535251502385600,-0.0219727,-0.42041,0.925293
1535251502399840,0.012207,-0.427246,0.929688
1535251502423100,0.03125,-0.471191,0.89502
1535251502445598,0.0322266,-0.52002,0.878906
1535251502466577,0.0380859,-0.518066,0.922852
1535251502483041,0.0283203,-0.532227,0.916016
1535251502505581,0.0234375,-0.541016,0.898926
1535251502526636,-0.000976563,-0.525391,0.90332
1535251502543120,-0.00146484,-0.550293,0.894043
1535251502565240,-0.0102539,-0.528809,0.898926
1535251502589303,-0.0141602,-0.519531,0.899902
1535251502602839,-0.00341797,-0.490723,0.884277
1535251502625900,0.00927734,-0.493164,0.873047
1535251502646458,0.0180664,-0.487793,0.879395
1535251502663147,0.012207,-0.520508,0.868164
1535251502685559,0.0126953,-0.529297,0.869629
1535251502706615,0.00634766,-0.537598,0.875977
1535251502722658,0.00244141,-0.524414,0.88916
1535251502746149,-0.00292969,-0.507324,0.902832
1535251502766274,-0.0107422,-0.481445,0.883301
1535251502782870,0.0141602,-0.5,0.873047
1535251502805427,0.0249023,-0.491699,0.876465
1535251502826585,0.0512695,-0.469238,0.853027
1535251502849053,0.0678711,-0.451172,0.861328
1535251502865588,0.0605469,-0.426758,0.916504
1535251502888148,0.034668,-0.421387,0.935059
1535251502902401,0.0629883,-0.414063,0.914551
1535251502925296,0.0952148,-0.365723,0.891602
1535251502947813,0.0986328,-0.410645,0.875
1535251502962962,0.0991211,-0.425781,0.82373
1535251502985406,0.147461,-0.356934,0.80127
1535251503007966,0.220703,-0.306152,0.78125
1535251503022503,0.224121,-0.367676,0.805176
1535251503047125,0.21875,-0.433594,0.838867
1535251503067825,0.150391,-0.525879,0.87793
1535251503088830,0.0541992,-0.483398,0.877441
1535251503105373,0.0478516,-0.399902,0.897949
1535251503128432,0.0366211,-0.4375,0.983398
1535251503149038,-0.0297852,-0.487305,1.00684
1535251503165559,-0.0327148,-0.454102,0.96875
1535251503188101,0.0205078,-0.306152,0.984375
1535251503209145,0.00830078,-0.333496,1.07959
1535251503225189,-0.0703125,-0.430664,1.08252
1535251503247750,-0.0478516,-0.340332,1.05859
1535251503268854,0.0209961,-0.238281,1.06494
1535251503285351,-0.0332031,-0.298828,1.11328
1535251503307910,-0.0942383,-0.359863,1.11865
1535251503329013,-0.0546875,-0.310059,1.06348
1535251503345561,0.027832,-0.247559,1.02588
1535251503369573,0.081543,-0.239258,1.00928
1535251503389126,0.0839844,-0.27002,0.981445
1535251503405670,0.0512695,-0.22168,0.999512
1535251503427728,0.0561523,-0.20459,1.00244
1535251503448786,0.0893555,-0.200684,1.01514
1535251503465377,0.103516,-0.19873,0.985352
1535251503487904,0.113281,-0.229004,0.953125
1535251503508961,0.149414,-0.243652,0.979004
1535251503525505,0.142578,-0.227539,1.01709
1535251503548130,0.18457,-0.251953,1.02539
1535251503569150,0.252441,-0.257813,1.0498
1535251503585666,0.238281,-0.226074,1.0625
1535251503608226,0.248047,-0.244141,1.04688
1535251503629285,0.311523,-0.26123,1.06494
1535251503645326,0.331543,-0.241699,1.0127
1535251503667891,0.287598,-0.21582,0.958984
1535251503688977,0.25,-0.20752,0.960938
1535251503705699,0.266602,-0.216309,0.962891
1535251503728044,0.270996,-0.200195,0.978027
1535251503749114,0.254395,-0.224121,0.989258
1535251503765144,0.263184,-0.223633,0.979004
1535251503788204,0.258301,-0.160645,1.00879
1535251503809262,0.211426,-0.195313,0.97998
1535251503825401,0.246094,-0.213867,0.984863
1535251503855384,0.236816,-0.199707,0.990723
1535251503877944,0.246094,-0.170898,0.98584
1535251503885466,0.257324,-0.125977,0.986328
1535251503908023,0.229492,-0.131348,0.990234
1535251503930583,0.234863,-0.15918,0.987793
1535251503945623,0.246094,-0.186035,0.988281
1535251503968183,0.246094,-0.197754,0.981934
1535251503990243,0.241211,-0.189453,0.976074
1535251504004784,0.237305,-0.165527,0.986816
1535251504027954,0.235352,-0.157715,0.971191
1535251504050402,0.22998,-0.185059,0.960938
1535251504065442,0.249023,-0.214844,0.970703
1535251504088507,0.25,-0.219238,0.990234
1535251504110561,0.25293,-0.194824,0.990234
1535251504124681,0.236328,-0.167969,0.987793
1535251504147951,0.238281,-0.190918,0.991699
1535251504170223,0.242676,-0.205566,0.989746
1535251504184852,0.23877,-0.185059,0.990234
1535251504207890,0.23584,-0.141113,0.99707
1535251504230477,0.216797,-0.158203,0.966309
1535251504235894,0.25,-0.182617,0.969238
1535251504252438,0.251465,-0.194336,0.97168
1535251504273494,0.249023,-0.211914,0.96582
1535251504295554,0.248047,-0.205078,0.962891
1535251504318152,0.242676,-0.212891,0.993164
1535251504333199,0.23877,-0.225098,0.980957
1535251504355713,0.251465,-0.195801,0.986816
1535251504372258,0.236816,-0.194336,0.981445
1535251504393378,0.242676,-0.189453,0.977051
1535251504415917,0.235352,-0.1875,0.978027
1535251504432418,0.236328,-0.189941,0.967773
1535251504453472,0.243164,-0.185059,0.979492
1535251504476033,0.25293,-0.196289,0.988281
1535251504501099,0.253906,-0.202148,0.98877
1535251504513132,0.250977,-0.20459,0.960938
1535251504535691,0.22998,-0.208496,0.963867
1535251504552235,0.250977,-0.207031,0.969238
