timestamp,emg1,emg2,emg3,emg4,emg5,emg6,emg7,emg8
1535251498660678,-1,4,-2,2,4,2,-2,0
1535251498660678,6,-4,5,8,4,3,2,4
1535251498665761,2,6,5,0,-2,0,0,1
1535251498665761,0,6,5,3,1,-3,-2,-1
1535251498668255,1,-2,-13,2,-1,0,2,0
1535251498668255,-1,2,10,-1,1,0,-1,1
1535251498668757,-3,1,-19,2,3,0,-2,-3
1535251498668757,-1,1,36,3,-1,0,-1,0
1535251498672266,2,-2,-15,-5,-1,0,1,1
1535251498672266,-1,3,-57,-3,-3,-2,-3,-2
1535251498685804,-4,-5,38,-1,-2,-1,-1,-2
1535251498685804,0,-2,28,1,-2,1,1,1
1535251498697360,2,9,33,3,0,-1,0,-1
1535251498697360,-2,2,-67,-7,-2,-1,-2,-4
1535251498700894,-3,-11,85,-8,-6,-3,-3,-3
1535251498700894,-3,-4,4,-2,-2,-3,-2,-2
1535251498715909,-4,-5,-96,-7,1,2,-2,0
1535251498715909,2,-3,48,-2,-2,-2,0,2
1535251498732577,3,7,8,-2,-2,-2,1,0
1535251498732577,-2,-6,-19,1,1,0,0,-3
1535251498733956,3,6,39,0,1,0,1,0
1535251498733956,-3,-2,22,4,-1,-3,-1,-2
1535251498780306,-2,2,-22,-1,1,1,-2,-1
1535251498780306,1,-3,24,-1,-1,1,-1,0
1535251498781117,0,-4,-25,-1,-1,1,0,-2
1535251498781117,0,13,62,8,1,1,-2,0
1535251498783589,-2,-21,-19,-21,-7,-3,-1,0
1535251498783589,-1,1,21,7,-1,-3,1,0
1535251498792112,2,7,18,8,6,2,0,1
1535251498792112,-12,-14,16,-8,-10,-5,-5,-7
1535251498793114,2,6,43,2,0,1,3,1
1535251498793114,0,0,-12,7,3,2,-1,0
1535251498798129,-4,1,94,0,-3,-4,-4,-3
1535251498798129,4,-1,-22,2,2,2,2,3
1535251498805648,0,4,6,-1,-2,-1,-1,-1
1535251498805648,-6,-6,-46,-6,-3,-3,-3,-3
1535251498820689,4,7,-83,-3,3,2,2,3
1535251498820689,0,-2,40,13,1,0,2,0
1535251498828711,0,12,25,10,4,2,-1,-1
1535251498828711,-4,-9,-13,-12,-5,-1,-3,-4
1535251498852272,-5,-13,44,-12,-5,-2,-4,-3
1535251498852272,-2,0,48,0,-1,-4,-1,-2
1535251498852774,0,-1,-29,-4,-2,-3,-2,-2
1535251498852774,4,9,10,2,1,1,2,2
1535251498866616,3,9,-21,14,5,2,3,2
1535251498866616,-7,-9,-21,-36,-8,-5,-5,-5
1535251498867312,7,4,-28,3,5,6,5,4
1535251498867312,-9,-3,119,23,-7,-6,-7,-8
1535251498889370,-1,-4,-9,3,-2,-1,-2,-1
1535251498889370,-1,-6,-49,-12,-1,0,1,0
1535251498890375,6,16,70,13,-1,1,1,2
1535251498890375,0,-8,62,-13,1,1,2,0
1535251498911931,1,-3,10,-20,0,0,1,0
1535251498911931,-1,-4,14,10,0,-4,-2,-1
1535251498912934,1,1,5,-5,2,2,0,1
1535251498912934,3,5,28,8,-1,0,-1,2
1535251498926483,-3,-3,33,9,-1,-3,-4,-1
1535251498926483,5,3,-17,-2,2,4,3,2
1535251498926971,-2,4,42,11,0,-1,-1,-2
1535251498926971,8,22,66,17,5,3,4,3
1535251498949531,-5,-6,-9,-21,-7,-3,-3,-3
1535251498949531,-2,-2,6,8,-2,-1,-1,-2
1535251498950533,-1,-6,-34,9,5,-1,-2,0
1535251498950533,-1,-1,26,7,0,-1,0,0
1535251498972127,3,13,84,13,2,0,2,2
1535251498972127,3,1,-37,-7,2,3,3,2
1535251498972592,-4,-5,98,-4,-3,-3,-2,-2
1535251498972592,-3,-11,-15,-14,-3,-1,-2,0
1535251498986632,2,3,9,17,3,3,2,1
1535251498986632,0,-1,-29,-6,1,1,1,-1
1535251498987133,6,-2,-114,-16,2,2,3,2
1535251498987133,-4,-12,7,-25,-5,-3,-2,-1
1535251499009690,-11,-9,79,11,-7,-6,-5,-6
1535251499009690,1,-2,-63,-1,1,0,-2,-1
1535251499010248,11,37,56,26,8,6,4,7
1535251499010248,-11,-23,25,-54,-15,-8,-5,-5
1535251499032250,9,17,49,23,6,4,2,4
1535251499032250,-2,-9,-50,-23,-5,-4,-3,-3
1535251499032999,-8,-14,41,0,-9,-6,-4,-5
1535251499032999,3,2,-37,12,5,3,0,2
1535251499046290,8,20,4,11,7,4,4,4
1535251499046290,-3,-16,127,-30,-4,-1,-3,-2
1535251499047290,-15,-15,23,5,-7,-9,-5,-8
1535251499047290,1,16,50,12,0,-2,0,-1
1535251499069851,1,8,32,23,4,1,2,-1
1535251499069851,3,5,-75,-6,1,0,2,-1
1535251499070352,-1,4,104,24,5,-1,-2,0
1535251499070352,0,-12,-16,-20,-4,-2,-2,-1
1535251499090906,-1,3,-24,-5,1,0,0,-1
1535251499090906,1,10,87,18,1,0,-1,1
1535251499099040,-2,-8,-49,-26,-9,-2,-2,-2
1535251499099040,10,36,40,50,17,5,3,5
1535251499106449,-1,-18,-119,-39,-8,-5,-2,-1
1535251499106449,1,6,41,18,2,3,0,1
1535251499106949,7,18,55,5,5,3,3,4
1535251499106949,0,-7,-55,-12,-3,2,1,0
1535251499137030,-18,-37,-23,-21,-11,-9,-8,-9
1535251499137030,1,21,1,12,4,2,2,4
1535251499138032,-7,-17,88,12,-3,-3,-3,-4
1535251499138032,-8,-17,71,2,-5,-2,-3,-5
1535251499152125,11,22,-46,-21,-3,1,2,4
1535251499152125,-21,-27,95,-10,-14,-12,-11,-13
1535251499153072,8,20,44,11,4,3,2,5
1535251499153072,-8,-10,15,-5,-3,-3,-5,-4
1535251499165606,-1,-13,-104,-22,-3,-1,-2,0
1535251499165606,14,29,102,49,12,4,5,5
1535251499174128,-9,-44,-128,-59,-10,-3,-1,-5
1535251499174128,-3,-2,-44,8,0,-1,0,-3
1535251499189670,2,4,103,7,0,-1,1,1
1535251499189670,2,1,-37,-14,-1,0,-1,1
1535251499190172,7,23,-39,11,3,1,0,3
1535251499190172,-26,-82,30,-72,-31,-14,-10,-13
1535251499212229,-2,9,73,57,13,3,0,0
1535251499212229,9,21,-92,-4,9,5,4,5
1535251499212731,3,16,-32,5,6,3,1,0
1535251499212731,18,57,37,32,16,9,8,11
1535251499226289,6,14,-2,-23,2,4,3,4
1535251499226289,-8,-6,-99,16,-8,-6,-5,-5
1535251499233787,14,46,96,91,22,12,9,10
1535251499233787,-15,-15,-29,-32,-16,-11,-8,-9
1535251499249829,15,33,86,42,14,5,3,6
1535251499249829,5,15,66,13,9,5,2,3
1535251499250331,-8,-13,41,-28,-9,-7,-4,-6
1535251499250331,11,20,-9,36,11,6,5,3
1535251499271888,-11,-13,61,10,-4,-3,-4,-8
1535251499271888,0,-6,-6,-11,-5,-1,-2,2
1535251499273010,-4,-23,47,-7,-11,-4,-3,-2
1535251499273010,-6,6,19,-23,-5,-3,-4,-2
1535251499285966,-1,-1,-68,12,2,1,-2,0
1535251499285966,1,-11,-37,-25,0,-2,0,-1
1535251499294146,-17,-41,-63,-67,-15,-8,-6,-9
1535251499294146,8,6,-117,16,11,2,1,2
1535251499309489,6,14,-13,5,-4,0,3,2
1535251499309489,-17,-30,-50,-21,-13,-7,-8,-11
1535251499310593,-16,-50,-15,-49,-13,-8,-7,-10
1535251499310593,5,8,-70,-12,2,0,-1,3
1535251499332048,6,11,77,48,6,4,2,1
1535251499332048,-3,13,127,38,8,0,-2,-3
1535251499333051,-2,-7,45,-30,-7,-3,0,-1
1535251499333051,8,5,-22,5,4,4,7,4
1535251499345905,-14,-25,-69,-11,0,-3,-6,-8
1535251499345905,9,36,83,45,9,5,3,3
1535251499354106,5,20,40,34,10,3,2,3
1535251499354106,11,29,-4,21,9,4,4,6
1535251499371172,15,39,61,13,9,9,7,7
1535251499371172,1,-19,7,-59,-16,-3,1,2
1535251499371673,-3,2,3,30,4,-6,-3,-2
1535251499371673,3,2,23,13,6,4,1,2
1535251499392327,5,13,31,-1,6,4,2,3
1535251499392327,2,-1,0,12,4,3,3,2
1535251499392730,-2,5,-31,-23,-5,-1,-1,-2
1535251499392730,-21,-49,-34,-22,-17,-9,-9,-11
1535251499406416,-18,-54,-108,-71,-25,-12,-9,-10
1535251499406416,-5,15,116,27,-1,-4,-2,0
1535251499413785,-18,-45,11,-32,-18,-10,-10,-11
1535251499413785,10,21,48,5,8,4,4,5
1535251499428844,-14,-33,-55,-37,-11,-7,-5,-7
1535251499428844,2,2,27,6,2,4,0,1
1535251499429903,6,26,65,25,6,4,3,2
1535251499429903,7,31,117,16,2,4,2,3
1535251499451930,-5,-31,-93,-56,-13,-7,-5,-5
1535251499451930,4,-6,-79,-7,4,2,-1,2
1535251499453105,1,1,-25,3,4,2,-1,3
1535251499453105,3,5,-30,5,2,0,0,-2
1535251499474569,8,26,-3,28,10,4,3,4
1535251499474569,-12,-62,9,-21,-6,-2,-2,-5
1535251499475493,3,35,26,18,1,-1,0,1
1535251499475493,6,18,67,23,8,2,-1,1
1535251499489029,3,11,113,9,5,1,0,-1
1535251499489029,9,1,-28,-1,3,1,1,4
1535251499489530,3,-9,-117,-6,2,2,2,6
1535251499489530,-11,-12,81,9,-3,-2,-3,-6
1535251499511825,5,2,3,0,-1,0,0,3
1535251499511825,-2,7,-30,-8,-3,-1,-4,-3
1535251499519168,-3,-7,-13,-4,-1,-1,-2,0
1535251499519168,2,-1,-82,-13,-6,-4,3,2
1535251499525627,-2,-20,12,-6,-6,-5,-4,-5
1535251499525627,-11,-6,-43,-12,-4,-4,-3,0
1535251499534148,-14,-2,-50,2,2,1,-1,-15
1535251499534148,6,5,19,8,6,3,1,9
1535251499548715,-7,-15,-4,-15,-3,-1,2,-2
1535251499548715,-16,-1,52,10,-2,-4,-4,-7
1535251499556234,39,16,19,16,7,5,4,16
1535251499556234,2,0,11,0,3,-1,-2,9
1535251499571277,-3,11,80,5,-1,-1,-1,-16
1535251499571277,15,-3,15,-6,2,2,2,3
1535251499578929,-16,-12,-11,-16,-3,0,-2,-6
1535251499578929,5,-8,-47,-7,-4,-4,-2,1
1535251499594388,-2,-7,-15,-7,-4,-2,-2,0
1535251499594388,-15,1,-36,-9,-1,-2,1,-4
1535251499595339,2,1,21,4,-2,-1,-1,1
1535251499595339,-8,-10,-16,-4,-4,-2,-1,-9
1535251499609116,0,-3,-16,1,-1,-1,0,5
1535251499609116,-1,10,72,3,1,2,3,4
1535251499609878,2,-2,12,-1,-2,-3,-2,-12
1535251499609878,6,-1,-15,-4,-4,-1,-2,-2
1535251499631936,-6,-7,49,6,-2,-5,-3,-2
1535251499631936,7,18,-102,-8,6,3,4,6
1535251499632940,0,7,-19,-3,-5,-1,0,2
1535251499632940,-12,-12,56,1,1,-3,-4,-10
1535251499654825,4,0,72,9,2,-1,9,4
1535251499654825,-15,0,-112,-7,0,1,-10,-13
1535251499655499,-7,-13,74,2,-3,-3,-5,0
1535251499655499,1,-2,4,2,3,3,3,-3
1535251499669035,2,4,-49,-7,0,-2,-1,4
1535251499669035,0,-9,0,1,-4,-4,2,-1
1535251499669627,5,1,-12,-3,1,-1,1,0
1535251499669627,-11,-8,-17,-7,-3,0,-3,-1
1535251499693599,0,-8,-9,-6,-3,-1,-5,1
1535251499693599,5,-8,17,0,-4,-3,-1,-2
1535251499695145,-1,-4,-20,2,1,1,-3,-5
1535251499695145,-3,-3,-19,-2,0,-1,6,20
1535251499722178,-8,5,-14,-2,-1,2,-2,-6
1535251499722178,18,-1,60,2,-2,-3,-1,3
1535251499722678,-21,-10,-12,-15,-4,-3,-1,-8
1535251499722678,-10,-9,36,-3,-2,-1,-3,-2
1535251499728193,-1,2,10,8,0,-2,-2,2
1535251499728193,-7,7,3,1,-1,0,-3,-6
1535251499737216,4,10,30,2,2,-2,1,5
1535251499737216,6,0,-103,-2,-2,-1,1,-6
1535251499759777,-3,-10,11,-12,-5,-2,-6,-7
1535251499759777,8,3,14,1,1,0,0,2
1535251499761280,2,2,-29,3,-2,2,1,5
1535251499761280,2,1,-32,-5,0,1,-2,-7
1535251499782338,3,0,-15,2,0,1,2,8
1535251499782338,4,1,1,1,-1,-2,-4,0
1535251499783842,-5,-1,-14,-5,-3,-1,-1,-1
1535251499783842,16,2,17,1,-5,-1,0,5
1535251499796902,-20,-4,-11,-1,0,1,3,-3
1535251499796902,2,-5,4,0,0,1,2,5
1535251499798881,6,-2,13,5,4,0,1,-2
1535251499798881,6,4,30,5,-2,-1,-1,12
1535251499810913,-12,8,64,6,-2,-1,-4,-23
1535251499810913,-6,-9,-10,-12,-5,-3,0,-3
1535251499819937,9,12,-75,1,4,4,4,2
1535251499819937,-11,-16,-6,-13,-5,-1,-5,-5
1535251499834526,-2,-4,-25,2,-1,0,0,4
1535251499834526,4,4,25,4,-1,0,3,3
1535251499835979,0,1,-2,0,0,1,0,-1
1535251499835979,-8,0,-3,-6,0,-2,-2,-4
1535251499857036,4,-2,-36,-3,1,0,1,3
1535251499857036,0,-1,8,-2,0,0,0,-6
1535251499858540,0,-3,28,3,2,2,0,5
1535251499858540,-2,2,-15,-2,-4,0,1,-6
1535251499870572,2,-8,-3,-4,-1,-3,-2,0
1535251499870572,4,2,-9,1,0,1,0,3
1535251499887115,-5,1,33,3,0,-2,1,1
1535251499887115,-6,-3,-4,0,-1,-2,-3,-12
1535251499893631,4,-2,-6,-2,-1,0,-1,4
1535251499893631,6,1,-2,-1,-4,-1,0,1
1535251499902195,10,0,-14,-4,-1,-2,-1,1
1535251499902195,-6,0,-1,5,1,1,-2,-9
1535251499924715,-10,1,-4,-4,-1,2,1,-2
1535251499924715,-5,-2,-1,1,1,-1,-1,11
1535251499926235,9,-1,2,2,-1,2,-2,-5
1535251499926235,-8,4,44,5,3,-2,0,5
1535251499930733,7,-9,-68,-8,-1,-1,-2,4
1535251499930733,-30,3,0,7,2,1,-1,-1
1535251499939755,-4,-10,57,-11,-7,-3,-5,0
1535251499939755,-9,1,3,2,0,-1,-1,-1
1535251499953792,3,2,-9,-1,-1,0,0,4
1535251499953792,14,4,-21,1,0,-1,1,-1
1535251499960810,-8,5,-18,1,1,1,0,0
1535251499960810,4,1,-8,-1,2,0,1,9
1535251499977355,-6,-3,14,-4,-1,0,-3,-5
1535251499977355,23,-4,-4,-1,0,-1,1,3
1535251499978859,-22,-3,3,1,-1,0,-1,-16
1535251499978859,12,2,-5,-1,-1,1,-1,14
1535251499999413,-2,0,-5,0,0,0,-4,-23
1535251499999413,-6,0,19,3,-1,0,-1,-8
1535251500007434,22,2,-15,-1,-1,-2,2,10
1535251500007434,-14,-4,-15,-2,-1,0,1,-3
1535251500014025,10,0,11,5,0,-2,-6,-13
1535251500014025,-20,-3,5,0,0,2,-1,7
1535251500020971,-4,-1,-2,2,1,-2,6,-17
1535251500020971,-4,-1,-10,-1,-1,-2,-12,-8
1535251500037118,1,1,10,-3,-2,-1,2,13
1535251500037118,-2,-1,2,-3,-1,-2,-4,-9
1535251500038518,13,2,-10,-1,0,2,-1,8
1535251500038518,4,3,4,-2,0,2,5,0
1535251500059574,-14,-2,-1,-2,1,0,2,0
1535251500059574,3,-6,-6,-3,-3,-1,-1,-2
1535251500061077,-1,-1,-3,1,1,1,0,6
1535251500061077,-3,0,-7,-2,-2,-2,-1,-6
1535251500074111,-6,3,3,-2,-2,-1,-1,2
1535251500074111,29,7,4,2,0,0,1,14
1535251500080650,-4,-3,2,2,1,0,-1,6
1535251500080650,-32,-7,-2,-2,-2,-1,0,-36
1535251500097173,1,-2,-8,-4,-1,-2,5,12
1535251500097173,2,-3,-1,-4,-2,-1,0,-3
1535251500098678,-6,4,-4,0,0,0,-6,0
1535251500098678,15,5,-2,2,0,1,0,5
1535251500119733,4,1,4,4,1,0,1,6
1535251500119733,-13,-7,1,-3,-2,1,-2,-7
1535251500121238,0,-1,-3,-3,-1,-3,0,2
1535251500121238,10,-1,-6,-5,-1,0,13,5
1535251500133772,9,-2,4,4,-1,1,-3,2
1535251500133772,-2,-1,1,1,-1,-5,-17,-3
1535251500140817,-4,0,0,2,1,2,-20,-3
1535251500140817,2,0,2,0,1,1,50,10
1535251500157334,4,-2,3,1,0,1,-3,-2
1535251500157334,-22,-1,-4,-3,0,1,7,-9
1535251500158838,1,-1,-3,-2,-2,0,-2,2
1535251500158838,11,1,-1,-2,-3,-2,-20,11
1535251500179893,1,-2,1,2,2,1,-20,-19
1535251500179893,-1,0,-4,-4,-1,-1,17,-5
1535251500181397,15,-2,-4,-3,-3,-4,-2,5
1535251500181397,-48,-8,0,-2,-1,1,-7,-1
1535251500193931,-6,0,-2,0,-1,-1,11,-24
1535251500193931,16,-3,-3,-1,-2,-5,-19,-1
1535251500201065,-17,1,1,-2,0,-2,-33,5
1535251500201065,30,-3,-6,-2,0,0,48,7
1535251500216993,7,2,3,0,-2,1,3,19
1535251500216993,-9,-2,2,4,2,2,8,-5
1535251500218496,0,-2,2,3,-1,0,23,0
1535251500218496,6,-4,-3,0,-1,0,-21,-10
1535251500239552,-33,0,0,0,0,-2,3,-5
1535251500239552,8,2,1,-1,-1,-1,12,14
1535251500241398,-3,-1,4,3,3,0,6,0
1535251500241398,13,4,3,1,1,2,-27,-2
1535251500254126,-12,-7,-7,-7,-5,-4,12,-10
1535251500254126,13,5,3,2,3,2,-6,5
1535251500260608,-9,0,0,0,-1,0,3,12
1535251500260608,18,8,3,2,1,-1,-10,-11
1535251500277153,5,-3,-2,-3,-1,1,-12,8
1535251500277153,-13,-5,-2,-1,-2,0,-15,-3
1535251500278658,8,-4,-3,1,1,-2,50,-1
1535251500278658,0,-5,-5,2,-3,-2,-21,-18
1535251500299739,23,15,14,9,4,3,32,25
1535251500299739,-32,-1,-5,-7,-3,-2,-7,-22
1535251500301247,15,-6,-14,-10,-3,-1,-40,17
1535251500301247,-42,-3,2,0,0,0,3,-5
1535251500313749,-1,1,0,0,1,-2,-12,-8
1535251500313749,8,-3,-2,-4,-1,-3,5,0
1535251500320879,1,0,2,3,-1,1,-12,-9
1535251500320879,-3,-3,0,-3,-2,-4,-9,2
1535251500337312,3,-5,-4,-3,-2,0,-9,8
1535251500337312,0,-4,2,3,2,1,8,2
1535251500338918,-10,-1,-2,-1,-2,-6,-24,-23
1535251500338918,10,5,-10,-8,-6,-2,24,14
1535251500359383,-4,0,-6,-4,-1,-1,-4,-4
1535251500359383,4,2,-3,-3,-2,0,3,-1
1535251500361376,-2,5,2,-1,1,-2,14,-9
1535251500361376,3,-3,2,2,2,0,-3,4
1535251500373909,5,-2,-7,0,-3,-1,-6,1
1535251500373909,-4,1,-2,-4,0,-2,-1,1
1535251500380927,-4,1,28,5,-3,1,3,-3
1535251500380927,3,-4,-25,-9,2,0,-3,2
1535251500396972,-3,-3,21,-6,-3,-4,-4,-1
1535251500396972,3,-3,-2,5,1,3,-2,1
1535251500398475,-3,2,4,8,2,1,10,-4
1535251500398475,3,0,-6,-12,-5,-2,-12,1
1535251500419775,0,-6,-18,-1,0,0,1,0
1535251500419775,-1,-4,-1,-1,-3,-1,0,0
1535251500421056,-2,-3,7,-1,-2,0,2,1
1535251500421056,1,5,17,12,0,0,-3,0
1535251500434069,1,-3,-28,-13,1,2,-2,0
1535251500434069,-4,0,28,1,0,-1,1,-1
1535251500440587,3,-2,-8,0,0,1,2,0
1535251500440587,1,-6,15,5,1,0,-4,1
1535251500457131,-2,1,6,-5,-2,-3,1,-2
1535251500457131,1,1,-1,2,-1,1,-3,1
1535251500458648,-6,-2,-43,-11,-2,-2,0,-3
1535251500458648,10,-4,24,11,3,1,3,1
1535251500479718,16,3,-7,8,2,1,1,7
1535251500479718,-15,12,-4,-2,-4,-1,0,-5
1535251500481195,-6,-6,-51,-25,-4,-2,1,-4
1535251500481195,-4,9,37,13,1,0,-3,0
1535251500493227,1,-1,-13,-3,1,1,0,0
1535251500493227,7,0,9,12,2,3,2,3
1535251500502251,-2,-2,-37,-11,-1,0,2,-3
1535251500502251,1,2,-17,5,2,1,-2,0
1535251500517291,-4,-3,32,11,-1,0,-1,-3
1535251500517291,-1,-4,-29,-13,-1,0,-3,-2
1535251500518809,2,-3,15,5,-1,-1,0,-2
1535251500518809,2,11,-15,-9,-2,-1,6,4
1535251500539351,-7,41,42,22,3,2,1,4
1535251500539351,0,10,37,-5,-2,-4,1,1
1535251500541356,7,-40,4,5,3,0,-14,-10
1535251500541356,-7,25,63,8,-3,-3,-7,-1
1535251500553388,-3,-8,27,-9,-1,0,2,-3
1535251500553388,4,-7,19,5,5,2,2,3
1535251500562412,-10,-3,36,-10,-6,-4,3,-6
1535251500562412,-3,-16,-18,2,1,0,-2,-1
1535251500576978,-15,-62,-53,-6,-1,-3,-5,-7
1535251500576978,5,14,97,19,6,3,1,2
1535251500578954,-8,-3,-64,-20,-5,-1,1,1
1535251500578954,-4,-8,15,-21,-5,-3,-3,-5
1535251500599538,-1,14,34,10,0,-2,0,0
1535251500599538,4,-8,-22,0,0,1,0,1
1535251500601015,3,10,4,23,5,4,2,6
1535251500601015,8,20,46,12,3,3,4,4
1535251500613073,-9,-50,45,-32,-8,-7,-4,-7
1535251500613073,1,-1,15,4,-3,-4,-3,-2
1535251500622070,-2,17,121,8,0,1,-1,-1
1535251500622070,-6,2,-33,-5,4,1,1,-2
1535251500637112,12,13,-19,8,2,0,-1,1
1535251500637112,-5,-5,-53,-21,-5,-3,-2,-3
1535251500638614,7,-17,31,22,5,1,2,4
1535251500638614,7,-1,-29,-8,-2,0,-1,0
1535251500659697,-3,30,-42,5,4,5,6,3
1535251500659697,-1,-8,-40,-10,-4,-3,-3,-4
1535251500661175,5,-2,33,0,-1,-1,2,6
1535251500661175,-9,-12,84,7,-1,-1,-4,-4
1535251500673371,2,5,-47,-4,-4,-4,-6,0
1535251500673371,-5,-2,-44,2,3,3,3,1
1535251500682230,6,22,74,10,3,0,3,2
1535251500682230,-1,-18,-67,-24,-2,-1,-3,-1
1535251500697305,1,10,36,-13,-6,-3,-1,1
1535251500697305,-1,-13,23,6,2,-1,-1,-2
1535251500698774,-3,2,19,9,-1,-2,-1,-1
1535251500698774,-3,-6,-51,-9,-2,-2,0,0
1535251500719830,1,-5,58,15,2,2,0,-1
1535251500719830,0,4,-17,-6,-3,-1,0,-2
1535251500721333,6,21,39,12,4,1,1,2
1535251500721333,2,2,-24,-3,-2,0,-1,2
1535251500742389,-9,-21,-14,-18,-5,-2,-2,-5
1535251500742389,-1,-27,-6,1,-1,-1,-4,0
1535251500743894,-4,16,-4,-14,-4,-2,0,-3
1535251500743894,2,-8,98,17,2,1,0,-2
1535251500756956,4,7,-37,-5,-1,-1,-2,0
1535251500756956,5,7,38,10,1,1,1,2
1535251500758933,-11,-23,-88,-31,-5,-2,-3,-6
1535251500758933,-4,-15,-15,-6,-2,-1,1,-3
1535251500779490,0,-5,-11,-6,-3,-1,-1,-1
1535251500779490,-5,17,68,14,-1,0,-1,-2
1535251500781000,0,5,-71,-13,2,0,-1,0
1535251500781000,5,6,61,14,0,-1,0,1
1535251500793071,-4,-12,64,8,0,-2,0,-1
1535251500793071,-1,11,2,2,0,-2,-4,-2
1535251500802094,0,-3,-72,-13,1,1,1,0
1535251500802094,5,7,64,15,4,0,1,2
1535251500817284,3,17,78,9,1,-2,2,1
1535251500817284,1,7,-39,4,2,1,0,0
1535251500818592,-8,-6,78,-17,-10,-7,-5,-6
1535251500818592,2,25,-40,9,1,2,-1,0
1535251500839649,-10,10,-92,-10,-2,0,-1,-4
1535251500839649,8,28,-15,-1,6,4,4,6
1535251500841153,1,16,49,13,-1,-1,1,1
1535251500841153,-3,-11,-41,-16,-4,-3,-2,-3
1535251500853197,7,12,74,22,1,-2,1,2
1535251500853197,-5,-23,-26,-29,-6,-2,-1,-4
1535251500862208,2,1,57,30,5,1,1,3
1535251500862208,-10,-4,55,-28,-10,-3,-4,-5
1535251500877319,1,8,77,2,0,-2,0,0
1535251500877319,0,27,125,68,6,-2,-1,0
1535251500878753,-7,-32,73,-25,-7,-4,-4,-5
1535251500878753,-6,-19,-72,-21,-5,-2,-4,-3
1535251500899808,13,33,-35,12,9,6,4,7
1535251500899808,-5,-3,6,0,-4,-3,0,-1
1535251500901313,-6,-15,-69,-26,-6,-4,-4,-4
1535251500901313,8,34,14,19,7,5,6,6
1535251500913346,-15,-47,-128,-84,-18,-7,-7,-9
1535251500913346,15,32,-34,-3,7,6,5,8
1535251500922368,-4,-33,-40,3,-7,-3,-2,-2
1535251500922368,-7,-15,21,1,-3,-3,-3,-1
1535251500936439,6,-5,16,18,4,4,2,2
1535251500936439,-5,-3,82,-7,-1,-2,0,0
1535251500943441,0,-19,-92,-19,-1,-1,0,-1
1535251500943441,-4,14,127,6,-2,-3,-1,-4
1535251500959467,-1,0,-65,0,0,0,1,0
1535251500959467,1,-23,33,1,-4,1,1,1
1535251500961015,-8,-19,-64,-45,-13,-6,-8,-7
1535251500961015,5,15,28,36,5,-1,0,1
1535251500982028,-8,20,-20,-15,-4,-2,-3,-3
1535251500982028,-11,-20,-36,-46,-13,-7,-6,-6
1535251500983532,11,37,19,35,13,7,6,5
1535251500983532,7,5,-120,18,13,4,3,4
1535251500997133,1,-2,16,-6,0,1,1,2
1535251500997133,-13,-40,93,0,-7,-7,-6,-8
1535251500998948,3,37,23,58,12,3,0,3
1535251500998948,-17,-75,-87,-90,-24,-10,-7,-12
1535251501019631,6,19,101,60,13,3,2,4
1535251501019631,6,14,-46,-21,-3,-1,1,2
1535251501021131,2,7,124,49,4,5,5,3
1535251501021131,-16,-31,-24,-16,-11,-10,-8,-9
1535251501042187,-4,-7,-28,21,1,-3,-3,-4
1535251501042187,1,-3,-35,-19,-1,1,1,2
1535251501043691,17,49,21,32,10,8,9,9
1535251501043691,20,40,52,24,9,7,7,8
1535251501057228,-4,-4,127,27,6,0,2,-1
1535251501057228,-8,-17,-73,-14,-8,-4,-4,-4
1535251501058732,-19,-43,52,-53,-18,-14,-10,-11
1535251501058732,18,29,-12,20,16,11,9,11
1535251501079787,-9,-48,-47,-53,-15,-5,-5,-7
1535251501079787,12,43,38,67,9,4,4,5
1535251501081293,-12,-65,-122,-60,-12,-4,-3,-4
1535251501081293,-3,-1,-43,-21,7,0,-2,-1
1535251501102347,-18,-31,115,54,-21,-12,-8,-12
1535251501102347,0,15,7,-44,4,0,0,-1
1535251501103851,1,-25,-17,-23,0,1,1,1
1535251501103851,-15,-7,-47,-26,-23,-11,-8,-8
1535251501116643,12,-4,-128,-65,-2,5,7,7
1535251501116643,-16,-37,69,34,-10,-9,-8,-11
1535251501123403,-1,9,57,26,6,0,-2,-1
1535251501123403,10,24,37,24,10,10,8,6
1535251501139447,-25,-51,121,-44,-30,-17,-13,-15
1535251501139447,4,4,52,27,6,3,1,4
1535251501141451,5,20,28,46,-1,0,1,-1
1535251501141451,5,14,81,8,7,4,1,3
1535251501162008,21,54,-2,37,15,6,5,8
1535251501162008,-28,-73,-45,-76,-23,-14,-10,-15
1535251501163511,0,43,17,33,-7,-4,-1,1
1535251501163511,-8,-9,62,-17,-8,-6,-5,-6
1535251501176545,-4,-29,-64,-49,-3,2,0,0
1535251501176545,9,16,-4,17,7,6,6,5
1535251501183063,5,3,33,2,5,3,3,1
1535251501183063,0,-12,-6,-2,1,0,1,2
1535251501199605,-1,31,-29,-49,-5,-3,-3,-3
1535251501199605,6,24,-65,0,3,3,2,3
1535251501201110,-14,-52,-128,-69,-16,-4,-6,-7
1535251501201110,-2,13,49,61,8,0,-1,-2
1535251501222167,10,18,28,47,10,5,2,5
1535251501222167,-6,-17,-5,-37,-11,-7,-5,-3
1535251501223737,7,15,35,-8,6,2,2,3
1535251501223737,12,16,83,48,12,7,6,6
1535251501236705,-21,-10,93,31,-9,-10,-10,-12
1535251501236705,-1,-10,0,8,-1,1,0,0
1535251501243222,3,18,-20,-1,8,4,3,5
1535251501243222,-11,-20,-93,-29,-15,-7,-7,-6
1535251501259887,17,29,11,22,15,7,7,8
1535251501259887,11,25,28,16,11,5,7,6
1535251501261274,-6,-3,-47,-21,-8,-5,-4,-4
1535251501261274,-5,-21,52,-11,-4,-1,-1,-2
1535251501289887,5,-5,-31,-5,3,3,3,3
1535251501289887,1,-1,-21,9,2,0,0,0
1535251501291379,4,19,26,8,8,3,2,1
1535251501291379,4,-14,-105,-26,-4,-2,-1,-1
1535251501296391,4,11,-12,6,5,5,4,4
1535251501296391,2,15,67,21,-1,-2,-2,-1
1535251501303382,3,4,-62,-1,2,1,-1,6
1535251501303382,8,11,-16,-2,1,2,-1,-9
1535251501319425,10,1,-7,9,1,-1,0,7
1535251501319425,2,27,6,25,12,6,2,2
1535251501321429,-14,-31,127,-2,-7,-6,-6,-7
1535251501321429,-7,-6,23,3,-5,-4,-2,0
1535251501341511,-1,2,-36,-5,3,2,1,5
1535251501341511,30,10,-14,-8,0,-1,-1,11
1535251501349507,-29,26,46,26,9,5,2,-15
1535251501349507,0,0,-6,-5,-1,-2,0,5
1535251501356524,1,-3,-7,4,-1,-3,-3,-9
1535251501356524,-4,-3,-83,-10,3,1,3,5
1535251501363160,12,3,35,8,-1,-1,-1,5
1535251501363160,-11,-5,-36,0,1,1,1,-5
1535251501387106,1,9,8,-1,-1,-1,0,1
1535251501387106,0,-13,-27,-16,-5,-4,-2,-4
1535251501388609,5,7,-32,4,3,3,3,3
1535251501388609,-4,-4,25,0,-5,-4,-2,0
1535251501402262,-4,-11,-37,-9,0,0,0,-1
1535251501402262,-11,-9,59,-5,-3,-4,-2,0
1535251501403650,11,8,-14,1,-2,-2,-2,11
1535251501403650,-17,-5,36,-4,-2,-2,-4,-27
1535251501416686,-2,3,30,11,2,3,1,1
1535251501416686,13,1,-116,-4,3,6,4,5
1535251501423200,-13,-1,-23,-14,-3,-3,-8,-1
1535251501423200,23,11,-39,4,2,2,14,12
1535251501439751,-3,-1,-47,-6,-2,1,1,-1
1535251501439751,-13,-7,45,9,-1,-2,-3,-9
1535251501441251,26,7,-3,-1,1,2,3,7
1535251501441251,2,-6,-14,-3,-4,-2,-6,5
1535251501462808,-4,1,-1,5,1,0,0,-6
1535251501462808,-4,-4,24,-1,0,2,0,4
1535251501464315,10,0,-37,0,0,0,3,0
1535251501464315,-12,10,6,-9,-3,-2,-4,-2
1535251501475937,3,0,-1,2,0,-1,0,1
1535251501475937,-2,11,79,17,2,0,-1,4
1535251501484873,-11,-8,-4,-11,-7,-6,-4,-22
1535251501484873,5,-1,22,-3,0,-2,-1,2
1535251501499909,-2,-2,22,3,3,0,-2,-1
1535251501499909,2,-4,-10,-9,-5,-3,-4,2
1535251501501409,3,5,-70,7,4,3,3,-4
1535251501501409,-22,-5,99,7,-1,-3,-4,3
1535251501521994,4,4,-22,-8,-1,-1,-2,-2
1535251501521994,-8,-7,-39,-8,-1,-2,-1,-7
1535251501523970,19,-1,35,5,-2,0,-1,10
1535251501523970,3,-1,-46,-3,-1,1,0,14
1535251501536001,1,2,13,1,0,-1,-2,-1
1535251501536001,24,0,-25,-7,-1,-2,1,-1
1535251501545026,-18,-1,16,-3,-2,-1,0,4
1535251501545026,8,1,-12,2,0,1,1,7
1535251501559672,-6,0,14,0,-1,-1,-2,-2
1535251501559672,0,-9,-19,-6,-4,-1,0,2
1535251501561069,-6,-1,40,7,-1,0,0,2
1535251501561069,6,-5,-8,-1,-1,-2,-2,-13
1535251501582130,2,3,-33,-1,-1,0,2,5
1535251501582130,-12,-5,18,-7,-3,-2,-7,-12
1535251501583631,-2,1,-38,-1,0,1,4,6
1535251501583631,1,1,44,0,-2,0,-2,0
1535251501596162,7,-2,-11,2,1,1,0,-7
1535251501596162,-16,-6,-5,-2,-2,-1,-2,0
1535251501604684,4,2,3,4,2,1,-1,-7
1535251501604684,3,-6,-38,-9,-1,-1,1,2
1535251501620227,0,-1,6,-3,-1,-3,0,2
1535251501620227,-1,3,7,-1,0,2,0,0
1535251501621730,-7,0,7,-1,-1,-1,-2,-4
1535251501621730,5,5,-18,1,3,1,1,-1
1535251501642393,-5,-1,21,-3,-3,-2,-2,-1
1535251501642393,-12,-3,-14,-1,-2,-1,0,-5
1535251501643790,20,0,22,1,-3,-3,0,4
1535251501643790,-4,1,-6,3,1,1,-1,5
1535251501655819,-20,0,3,-1,1,-2,-1,-10
1535251501655819,10,-4,0,-1,-2,1,2,8
1535251501664850,-2,0,13,-3,-2,-1,-3,-5
1535251501664850,-2,-2,-3,1,0,1,-1,-2
1535251501679386,11,-1,2,2,2,0,0,4
1535251501679386,1,2,3,0,1,-1,1,1
1535251501681423,0,1,8,1,3,-1,0,1
1535251501681423,-7,-1,-12,-4,-1,-2,1,-3
1535251501702511,-3,-3,13,-1,-3,0,-1,5
1535251501702511,3,1,7,1,-1,-1,-2,-7
1535251501703948,-2,-3,1,-3,-1,-1,-2,-1
1535251501703948,8,1,-11,0,0,0,2,0
1535251501715991,2,-3,-4,-3,-2,-1,0,2
1535251501715991,3,1,0,-2,-1,0,-1,-3
1535251501726508,-7,-1,8,0,-2,-1,0,0
1535251501726508,0,-5,-14,-1,1,0,1,2
1535251501739543,4,-1,4,-2,-1,-1,-2,-6
1535251501739543,-3,-4,-5,0,-1,0,-1,0
1535251501741047,-8,-9,6,-3,-3,-1,0,10
1535251501741047,-2,-4,1,1,-2,-3,-2,-25
1535251501762604,5,-3,-3,0,0,-2,-3,-6
1535251501762604,-5,-2,-4,0,-2,-3,-2,-2
1535251501764235,10,3,5,0,1,1,1,-1
1535251501764235,-12,4,3,1,-1,-2,-2,2
1535251501786253,13,5,2,0,0,1,-1,5
1535251501786253,2,2,0,-1,-2,-4,-1,-2
1535251501787673,1,-2,1,0,-1,1,1,-1
1535251501787673,13,7,-3,1,-1,2,0,6
1535251501807339,-1,-10,-2,0,1,0,0,1
1535251501807339,-15,-2,2,0,1,0,-1,-2
1535251501808726,8,4,3,2,0,-1,0,2
1535251501808726,5,-1,-2,-1,0,-1,2,9
1535251501829783,-22,-1,6,3,2,-1,-3,-16
1535251501829783,0,2,-3,-5,-2,-1,-1,-1
1535251501831288,-8,-2,-3,-3,-2,-2,-1,-5
1535251501831288,-4,-2,-6,-4,-2,-2,-3,-1
1535251501835901,-3,5,5,3,3,0,2,0
1535251501835901,-2,-3,-4,0,-1,-1,2,5
1535251501844940,7,0,2,0,1,0,11,20
1535251501844940,-21,-5,0,-1,0,0,-11,-18
1535251501859862,21,2,1,-1,-1,-1,-5,-3
1535251501859862,-5,-4,-4,-4,-3,1,-2,-10
1535251501861365,-1,-1,-1,2,-1,-2,0,8
1535251501861365,-7,-3,-3,-1,-2,-1,3,-1
1535251501882423,-3,-3,-6,-2,-3,0,1,4
1535251501882423,-8,2,2,2,2,0,-1,-2
1535251501883926,0,-3,2,0,-2,-1,-4,-14
1535251501883926,-5,0,-9,-6,0,-1,0,0
1535251501896003,-6,4,-10,-6,-3,-3,-1,-1
1535251501896003,4,1,1,0,0,2,0,0
1535251501904982,0,-3,6,2,1,0,0,2
1535251501904982,7,4,7,5,1,-2,-2,-11
1535251501919617,3,0,-4,-4,-2,-1,2,5
1535251501919617,18,2,-2,0,1,2,6,32
1535251501921085,-55,-1,-1,-2,-1,-2,-6,-58
1535251501921085,13,-4,0,0,1,1,-6,1
1535251501942081,-7,2,5,4,2,-2,-2,-1
1535251501942081,1,2,1,0,1,-2,6,1
1535251501943585,10,3,1,1,2,0,-3,16
1535251501943585,3,3,-2,-2,-4,-2,2,5
1535251501964641,-4,0,-3,-2,-1,0,1,-6
1535251501964641,2,-2,3,1,-3,1,-1,-3
1535251501966147,11,1,-3,1,-1,1,0,4
1535251501966147,1,-10,-16,-7,-2,2,14,18
1535251501978221,-8,-1,3,2,1,-1,-8,-6
1535251501978221,9,2,-2,-4,-3,-9,-14,3
1535251501987245,-3,-8,-4,-3,-2,0,-2,-3
1535251501987245,1,3,10,4,4,1,1,7
1535251502002504,-4,-13,-13,-6,-5,0,12,-2
1535251502002504,-9,0,-3,-1,2,1,-2,-8
1535251502003745,-8,-5,-1,-1,0,-1,-7,-11
1535251502003745,2,-9,-1,-3,-2,2,-2,-4
1535251502024890,3,5,-4,-3,-1,1,3,14
1535251502024890,-4,2,4,3,2,0,2,-7
1535251502026306,10,4,-3,-3,-4,-2,-4,9
1535251502026306,-2,9,6,4,3,1,1,7
1535251502039841,-3,5,-1,-2,-2,-3,-4,-8
1535251502039841,-1,-5,-5,-5,-1,-2,-1,-2
1535251502041387,6,4,2,1,0,-1,0,-1
1535251502041387,-2,1,0,0,-2,-3,-2,2
1535251502062405,-7,-4,6,2,1,0,0,7
1535251502062405,0,-3,4,3,3,1,0,-11
1535251502063906,-2,-10,-9,-7,-4,-1,4,8
1535251502063906,-4,-2,-3,0,-2,-3,-4,-8
1535251502084962,-2,2,4,-1,0,0,2,10
1535251502084962,-8,-1,2,0,0,2,-10,-28
1535251502086466,-3,2,-3,-2,-1,-1,-1,-4
1535251502086466,2,2,2,1,1,-1,-1,0
1535251502099044,5,-2,0,0,-2,-1,1,-2
1535251502099044,-1,-2,-2,-2,-3,-2,2,5
1535251502106018,-2,3,1,-2,0,0,-2,2
1535251502106018,3,-1,-3,-3,-2,-1,0,-3
1535251502122372,-3,-3,-1,0,-1,-1,-2,1
1535251502122372,-2,2,-1,1,1,-1,1,1
1535251502123660,0,-1,1,0,0,-2,-1,0
1535251502123660,-1,-3,0,0,1,1,2,1
1535251502144622,-1,-2,0,-1,0,1,0,-4
1535251502144622,1,2,0,-2,-2,-1,1,2
1535251502146127,4,6,1,0,2,0,0,-1
1535251502146127,-3,-2,-1,-1,-1,0,-1,-1
1535251502159159,1,2,-1,1,1,2,-3,-2
1535251502159159,-2,-3,-1,-2,-3,-1,-1,0
1535251502165678,-2,4,-1,-4,-1,-2,-1,-1
1535251502165678,2,2,1,0,1,2,4,2
1535251502190240,-1,-3,-1,-1,-1,2,0,-1
1535251502190240,-3,-3,-6,-2,-1,-1,0,4
1535251502191820,-1,0,12,3,-2,0,-1,-1
1535251502191820,-2,-1,-13,-4,-4,-2,-3,-4
1535251502204779,6,1,-63,-3,2,0,3,3
1535251502204779,-3,-2,53,2,1,1,0,-2
1535251502206375,-6,-1,14,6,-1,-1,-2,-2
1535251502206375,-1,-1,17,-1,-3,-2,-1,-1
1535251502218890,-6,-12,-35,-8,-4,-3,-2,-3
1535251502218890,-1,-1,27,5,-1,-2,-2,-1
1535251502225911,2,4,-8,-4,0,0,1,1
1535251502225911,3,6,-23,7,4,1,0,3
1535251502242381,-1,-1,17,-4,-2,-3,-2,-2
1535251502242381,0,-1,-36,-3,0,1,0,-1
1535251502244010,1,-5,0,2,1,2,0,0
1535251502244010,0,1,-15,2,0,-2,-2,-3
1535251502264943,2,5,51,9,1,0,-1,0
1535251502264943,0,1,-29,-5,-1,1,3,1
1535251502266505,-2,-8,-38,-11,0,-2,1,-2
1535251502266505,-1,-4,-7,0,-2,-1,-3,-3
1535251502287504,-3,-3,79,-3,-5,-4,-3,-2
1535251502287504,3,7,-46,6,4,1,3,3
1535251502289007,5,11,19,12,4,3,3,3
1535251502289007,-13,-28,87,-8,-9,-6,-6,-7
1535251502302042,2,11,38,6,1,-1,-3,-1
1535251502302042,-10,-9,96,12,-4,-6,-5,-7
1535251502304046,3,1,-37,-19,-1,1,1,1
1535251502304046,1,1,23,-18,-2,0,0,-1
1535251502324606,0,-1,-55,10,3,3,-1,-1
1535251502324606,8,2,-100,-2,3,2,4,4
1535251502326105,-5,3,55,11,-3,-4,-3,-4
1535251502326105,0,-1,96,4,1,-1,1,0
1535251502339139,0,7,14,-5,0,1,1,-2
1535251502339139,4,5,4,9,5,2,0,4
1535251502346158,0,-4,-58,-12,-2,0,-1,-1
1535251502346158,-2,-4,14,-3,-2,-1,-2,-1
1535251502362199,3,14,5,8,2,1,2,5
1535251502362199,-8,-26,49,4,-4,-2,-3,-5
1535251502363708,4,3,-64,-21,3,1,2,3
1535251502363708,-13,-12,85,16,-8,-5,-8,-9
1535251502384758,3,5,-108,-19,1,1,0,3
1535251502384758,-7,-19,-15,-17,-7,-6,-5,-3
1535251502386263,17,41,-27,37,13,8,7,9
1535251502386263,-17,-26,-62,-24,-17,-12,-9,-12
1535251502398795,6,5,-20,13,7,3,3,2
1535251502398795,6,25,43,21,2,3,-1,2
1535251502405815,-3,-16,-13,-24,-5,-2,-2,-1
1535251502405815,6,11,72,11,7,3,5,3
1535251502422359,-7,-20,78,2,-6,-2,-4,-4
1535251502422359,2,12,41,1,2,0,2,0
1535251502423865,-5,-14,82,-13,-7,-4,-2,-3
1535251502423865,13,15,-106,6,10,7,6,8
1535251502444954,-7,-14,109,-16,-7,-2,-4,-4
1535251502444954,-1,-1,-41,5,-1,0,1,-1
1535251502446424,-6,-10,10,5,-4,-3,-4,-6
1535251502446424,2,12,5,-6,0,-1,1,2
1535251502458454,3,2,-79,-3,2,2,2,2
1535251502458454,-1,-5,47,-9,-4,0,0,-1
1535251502467480,-9,2,127,22,-5,-6,-6,-4
1535251502467480,9,10,-104,-2,7,6,5,3
1535251502482021,-5,-14,-49,-22,-9,-5,-5,-5
1535251502482021,4,21,-19,6,2,1,1,1
1535251502483523,-1,-2,-27,-18,-1,2,0,-2
1535251502483523,4,12,30,32,3,2,2,1
1535251502504714,1,7,127,18,4,-1,1,0
1535251502504714,3,-6,-26,-11,-1,2,1,2
1535251502506082,-4,-17,12,-8,-5,-3,-3,-1
1535251502506082,3,-4,-7,6,2,2,2,0
1535251502518617,0,-5,-37,-12,-1,1,1,-1
1535251502518617,1,11,-45,3,2,-1,-1,1
1535251502527642,-1,4,35,3,-1,0,0,1
1535251502527642,0,3,17,-1,-3,-1,-1,0
1535251502542178,0,-6,-128,-3,1,0,0,1
1535251502542178,-12,-34,35,-43,-12,-6,-4,-7
1535251502543682,3,4,-88,-16,-1,-1,1,2
1535251502543682,-13,-33,-12,-32,-10,-7,-7,-7
1535251502564737,-1,-3,-44,0,0,0,-1,0
1535251502564737,2,10,29,6,6,4,2,1
1535251502566477,9,12,-90,14,8,4,4,5
1535251502566477,0,1,7,5,3,1,2,1
1535251502588302,-3,-11,-44,-14,-8,-3,-4,-5
1535251502588302,0,3,40,13,3,1,-1,0
1535251502590306,-2,-1,17,5,-3,-2,-1,-2
1535251502590306,7,10,13,-3,3,3,1,3
1535251502602337,-2,5,21,10,1,-2,1,-1
1535251502602337,1,-2,-50,-5,-2,-2,-1,0
1535251502603843,8,15,-28,8,4,4,1,4
1535251502603843,-11,-17,85,5,-13,-7,-7,-8
1535251502625398,1,5,35,13,5,1,-1,1
1535251502625398,4,0,-84,1,4,3,0,2
1535251502626904,-7,-20,6,-19,-8,-5,-3,-3
1535251502626904,1,3,11,2,3,0,0,-1
1535251502638433,8,5,-37,18,7,5,4,3
1535251502638433,-15,-21,70,-7,-10,-8,-6,-7
1535251502647459,-3,-3,58,14,2,1,0,-1
1535251502647459,1,13,-91,9,0,0,-1,2
1535251502661998,-4,-7,127,-3,-7,-4,-4,-2
1535251502661998,3,-1,-85,-10,-2,2,0,1
1535251502663501,0,9,-38,4,2,1,1,-1
1535251502663501,4,9,72,16,8,6,5,3
1535251502684659,-3,-3,-85,-30,-7,-4,-3,-2
1535251502684659,1,1,16,6,1,1,1,1
1535251502686096,0,5,79,12,-5,-3,-5,-3
1535251502686096,-3,-25,-87,-34,-5,-2,-1,-1
1535251502698597,-2,3,-67,-23,-3,-2,-2,-3
1535251502698597,-5,-4,64,7,0,-1,-3,-2
1535251502707116,-4,-10,-38,-6,-1,-2,0,-1
1535251502707116,-1,0,23,-18,-4,-3,0,-2
1535251502722157,0,4,127,16,1,0,0,1
1535251502722157,1,15,16,1,-2,-2,0,0
1535251502723661,5,6,62,17,3,2,2,2
1535251502723661,-10,-13,-14,7,-3,-7,-6,-7
1535251502745217,2,3,47,-3,-1,2,0,2
1535251502745217,0,-11,-63,-26,-2,-2,-2,-1
1535251502746753,-4,-3,81,4,0,0,-1,-1
1535251502746753,12,22,30,-7,2,3,2,8
1535251502758258,-14,-25,30,2,-8,-7,-5,-9
1535251502758258,6,14,2,7,1,2,2,3
1535251502767475,-9,-22,35,1,-3,-5,-3,-5
1535251502767475,1,-1,-56,8,1,0,-2,1
1535251502782366,6,3,8,9,0,1,1,3
1535251502782366,2,5,37,-2,4,4,1,-2
1535251502783868,-3,-9,-72,-13,-3,-4,-3,-2
1535251502783868,4,10,-6,10,5,1,2,3
1535251502804429,2,6,35,16,-3,-1,2,1
1535251502804429,-3,-4,69,-3,3,0,0,0
1535251502806429,-14,-35,68,-22,-14,-8,-6,-8
1535251502806429,1,9,4,12,3,2,1,1
1535251502818461,4,10,-11,-8,-1,0,0,2
1535251502818461,-1,1,14,4,0,-3,-1,0
1535251502827486,5,13,-57,8,4,2,1,0
1535251502827486,1,0,21,-5,-2,2,-1,1
1535251502841021,-3,-8,-20,0,1,-2,0,-2
1535251502841021,0,3,-8,5,-3,0,3,0
1535251502849701,2,9,-3,5,3,3,-1,1
1535251502849701,-4,-5,9,-8,-3,-3,-4,-4
1535251502864684,-1,1,11,-1,3,3,-1,0
1535251502864684,-2,-8,-27,-6,-3,-1,-1,-2
1535251502866113,-1,3,-3,-3,-3,-2,-2,-1
1535251502866113,-3,-2,17,-3,-1,-2,0,-2
1535251502887245,0,2,-6,5,2,0,0,0
1535251502887245,0,0,-7,-1,-2,-2,-2,-1
1535251502888786,0,1,-10,-5,1,-1,0,-2
1535251502888786,-1,0,-12,3,1,2,3,1
1535251502901683,2,1,-29,2,3,0,-2,-2
1535251502901683,-4,-5,-10,-3,0,0,2,-1
1535251502908202,3,8,26,6,2,0,0,0
1535251502908202,-2,-3,-61,-18,-1,-2,-1,-1
1535251502924743,0,3,32,10,0,0,0,0
1535251502924743,-4,-7,18,-7,-7,-4,-2,-3
1535251502926247,1,0,1,0,1,0,-2,1
1535251502926247,2,4,15,5,1,2,3,-1
1535251502947304,-1,3,-4,-1,1,2,1,2
1535251502947304,0,4,-7,3,-2,-1,-4,0
1535251502948895,-1,-1,2,0,0,0,-5,0
1535251502948895,9,0,-6,-4,-1,0,1,4
1535251502962343,-23,-4,-8,-3,-4,-2,0,-9
1535251502962343,3,3,1,6,5,4,4,1
1535251502963850,1,-1,-8,-7,-3,-2,0,3
1535251502963850,-7,-2,14,4,2,-5,-2,0
1535251502984407,8,1,-8,-6,-5,-3,-3,-2
1535251502984407,-13,-1,6,5,0,-2,-2,-4
1535251502986407,-4,-2,3,0,4,2,3,-3
1535251502986407,-5,0,-9,-4,-6,-3,-3,-2
1535251503006962,4,3,5,6,4,5,6,3
1535251503006962,-1,-2,-5,-7,-5,-3,-3,-3
1535251503008968,-2,-7,-6,-1,-2,-2,4,16
1535251503008968,11,-2,3,0,0,-1,-2,-10
1535251503021502,5,1,-8,0,0,-4,-8,-12
1535251503021502,-13,-4,1,1,-1,1,-3,-11
1535251503028519,-4,6,7,6,4,1,1,4
1535251503028519,2,1,2,-2,-5,-1,-1,2
1535251503046066,2,-1,-1,-3,0,-1,-1,9
1535251503046066,8,5,8,1,1,0,2,2
1535251503047814,0,6,-22,-7,-8,-5,-6,-7
1535251503047814,-8,7,5,7,3,-2,-6,-4
1535251503067269,13,12,-1,-3,-1,4,2,3
1535251503067269,-9,-25,-27,3,-2,-1,-2,2
1535251503068773,1,-16,9,-4,-1,2,4,-3
1535251503068773,0,-7,-19,-4,-2,-1,-2,-1
1535251503080806,-2,-5,16,0,-3,-4,-2,4
1535251503080806,7,7,14,-4,1,5,5,3
1535251503089971,1,10,-10,2,3,-1,0,-3
1535251503089971,-3,-6,-6,4,4,4,5,3
1535251503104890,-1,-4,-4,-14,-5,-3,3,2
1535251503104890,5,8,-7,18,-1,-2,-2,5
1535251503106374,-2,-9,-5,-3,9,4,3,-5
1535251503106374,0,-4,-2,2,-3,-3,-4,0
1535251503127479,2,-12,-4,-2,-3,-2,2,1
1535251503127479,-4,-2,-17,-11,-2,0,5,-1
1535251503128966,4,1,32,1,-4,-2,-2,2
1535251503128966,-7,6,13,-2,-7,-5,-5,-3
1535251503140965,7,-8,-32,-14,3,1,0,1
1535251503140965,5,19,41,11,2,-2,-5,-2
1535251503149488,-1,-6,-86,-19,-2,2,-1,-4
1535251503149488,-2,-4,86,-4,-3,-2,-1,1
1535251503164624,-5,15,66,26,7,-1,-2,-3
1535251503164624,1,-15,-15,7,1,0,-1,-1
1535251503166041,-3,2,59,0,-1,-1,0,-2
1535251503166041,2,7,-20,3,-1,0,0,0
1535251503187143,-3,-8,-30,-14,-4,-2,0,2
1535251503187143,10,17,-26,18,5,1,-1,4
1535251503188592,-13,-47,87,10,-4,2,-2,-4
1535251503188592,0,8,-33,-26,-4,0,-6,-7
1535251503200623,-5,5,31,44,15,3,-2,-5
1535251503200623,-4,-5,-16,-33,-7,-1,-1,-1
1535251503209647,5,9,14,2,-4,-4,-3,-3
1535251503209647,2,10,10,17,3,3,6,3
1535251503224688,0,-15,-94,-44,-11,-3,0,3
1535251503224688,-4,3,21,1,-1,-2,-1,-3
1535251503226192,-2,-3,-10,6,-6,-3,-2,-4
1535251503226192,-2,-5,-10,-8,-2,2,4,6
1535251503247248,-3,7,0,6,0,-2,-1,-3
1535251503247248,4,-1,-8,-4,-1,-1,0,4
1535251503248751,8,25,31,6,0,0,1,3
1535251503248751,-10,-13,-1,8,10,6,0,-2
1535251503260832,4,31,65,15,0,2,2,1
1535251503260832,-5,-9,-38,-15,-7,-7,-6,-9
1535251503269807,2,-23,-20,-5,-4,-2,0,0
1535251503269807,-2,-4,-9,21,7,1,0,-4
1535251503284848,-3,-2,41,-26,-12,-4,0,-3
1535251503284848,-3,-13,26,0,2,2,0,0
1535251503286388,-3,12,-40,-22,-7,-5,-2,0
1535251503286388,10,1,-22,-11,-5,-2,4,2
1535251503306908,0,-17,53,20,5,0,-4,-3
1535251503306908,0,5,-11,7,1,0,2,3
1535251503308910,21,6,-1,7,4,3,1,-6
1535251503308910,1,-9,-1,-5,-4,-3,1,3
1535251503320943,0,-3,-41,2,-3,-2,-2,14
1535251503320943,2,22,23,-1,2,0,-1,-10
1535251503329771,-18,-51,4,9,-1,-3,-7,-3
1535251503329771,0,-9,12,-8,-4,-4,1,-2
1535251503344559,-2,1,-3,11,2,2,-1,3
1535251503344559,2,-11,-50,-32,-7,-3,-4,-16
1535251503346010,4,22,15,6,1,-2,-3,22
1535251503346010,19,3,16,-11,-1,3,4,10
1535251503368575,-31,-12,24,-2,4,4,2,-4
1535251503368575,4,-9,-48,1,-1,1,0,5
1535251503370340,-11,-4,-42,-10,-7,-5,-5,-12
1535251503370340,-7,-9,-17,4,0,-3,-4,-1
1535251503380659,6,14,-48,-7,0,1,1,1
1535251503380659,3,6,43,29,1,0,1,3
1535251503389781,-1,3,-31,-65,-4,0,0,0
1535251503389781,7,9,-6,4,2,1,-1,3
1535251503404885,-6,-16,-14,-3,0,0,-2,-15
1535251503404885,-9,0,27,2,0,-1,-2,4
1535251503406220,-3,5,21,31,3,4,3,0
1535251503406220,-5,-5,-3,-13,-7,-5,-3,-3
1535251503427228,4,3,10,2,-1,-1,-2,-2
1535251503427228,6,5,-22,12,5,2,2,6
1535251503428731,2,52,79,6,-2,-1,3,-1
1535251503428731,-12,-18,-13,8,-3,-3,-2,-4
1535251503440763,2,-14,-10,-11,-5,-4,-9,-3
1535251503440763,-4,0,45,-11,-2,-4,-3,0
1535251503449788,12,3,-15,23,18,14,9,5
1535251503449788,7,0,26,9,-2,0,-3,-4
1535251503464843,-1,6,50,5,-7,-3,-1,0
1535251503464843,3,-10,-24,-15,-4,0,4,6
1535251503466347,-24,-16,-12,1,-2,-4,-5,-9
1535251503466347,-17,-13,18,29,-2,1,-2,-4
1535251503486903,14,-9,-84,-79,-8,-3,-1,0
1535251503486903,8,3,26,-2,-2,0,-3,-2
1535251503488907,12,16,-16,15,8,6,6,4
1535251503488907,-3,6,13,-16,-5,-3,-3,-4
1535251503500939,2,10,7,32,1,0,2,1
1535251503500939,-3,-10,-10,-10,3,2,1,-1
1535251503509465,4,-3,-15,-2,-4,-3,-2,-1
1535251503509465,-1,8,10,19,7,1,-2,-3
1535251503524502,-9,-19,-30,-20,-5,-3,-2,-1
1535251503524502,0,-7,-4,5,3,-1,-1,-1
1535251503526006,-6,14,45,27,3,-1,-2,-3
1535251503526006,-6,33,-1,-9,-2,3,4,3
1535251503547105,10,-30,-39,-7,1,0,-1,0
1535251503547105,-8,53,10,12,0,1,2,1
1535251503548647,-9,-31,21,-12,-7,-5,-4,-6
1535251503548647,3,1,-23,-14,0,0,-2,-2
1535251503560639,2,1,53,30,9,3,1,-2
1535251503560639,-2,-5,78,32,1,0,-2,0
1535251503570126,0,4,-90,-49,-9,-3,0,2
1535251503570126,-4,-34,62,20,-1,-1,2,-3
1535251503584665,-7,31,2,-2,1,-1,-1,-3
1535251503584665,11,-17,28,10,-3,-4,-3,-1
1535251503586460,2,0,-84,-22,-1,1,1,2
1535251503586460,3,-7,11,4,2,0,1,0
1535251503607224,-8,-4,0,6,-2,0,-1,-7
1535251503607224,-2,-8,-1,-17,-1,-2,2,5
1535251503608992,-1,-7,-30,-4,-1,-1,-5,-9
1535251503608992,-1,8,1,-11,-4,-3,-1,1
1535251503620761,-3,4,6,8,0,0,0,-2
1535251503620761,-2,4,-32,-16,-2,2,1,0
1535251503629789,3,-15,25,30,5,1,0,0
1535251503629789,-1,26,-49,-29,-3,-1,0,2
1535251503644935,1,-1,18,4,-1,-1,0,0
1535251503644935,-8,0,4,6,-1,-2,-1,2
1535251503646328,5,-10,30,4,-2,0,3,2
1535251503646328,-6,3,8,6,6,4,0,-1
1535251503667455,-1,-8,-53,-19,-9,-4,-3,-1
1535251503667455,-4,8,-13,-6,-1,1,0,-1
1535251503668980,-5,12,45,7,-3,-3,-3,-1
1535251503668980,8,2,4,7,2,1,0,2
1535251503680919,-2,7,4,3,3,1,-4,0
1535251503680919,2,-10,-30,0,-2,0,2,0
1535251503689943,-2,-3,6,-3,1,-1,-2,-1
1535251503689943,4,-12,-22,-7,1,-1,1,2
1535251503704524,-2,28,-13,2,0,1,4,17
1535251503704524,1,-21,11,0,-3,-1,-1,-12
1535251503706487,3,0,6,-11,0,0,2,3
1535251503706487,2,-3,-5,9,-1,-3,-2,-11
1535251503727041,1,2,-24,-28,0,1,2,3
1535251503727041,4,7,111,41,7,1,3,-4
1535251503728546,0,-8,-61,-24,-7,-4,-4,-1
1535251503728546,0,7,-17,3,-1,0,-1,-1
1535251503741080,-5,-40,-6,-1,-4,-3,2,-8
1535251503741080,1,27,17,0,0,0,0,0
1535251503749611,0,4,9,4,2,3,0,-2
1535251503749611,10,13,4,-16,-7,-3,-1,5
1535251503764641,0,-47,29,27,10,1,-2,-6
1535251503764641,-20,-36,-45,-36,-9,-7,-6,-4
1535251503770659,13,6,-13,24,5,2,0,2
1535251503770659,0,-1,-39,-16,-3,0,-1,0
1535251503787209,8,0,62,18,3,4,1,-1
1535251503787209,-9,-13,-35,-24,-4,-2,-2,3
1535251503788749,1,1,-2,-1,-3,0,1,-2
1535251503788749,2,-49,-4,10,1,0,-1,-3
1535251503800781,-5,9,39,0,-7,-4,-2,-4
1535251503800781,5,21,-5,14,4,1,2,3
1535251503809763,-3,5,4,-6,-5,-2,-2,0
1535251503809763,-6,15,19,-4,-1,-1,-1,4
1535251503824803,6,28,-31,7,3,1,3,2
1535251503824803,-5,-50,-7,-30,-6,-5,-2,-7
1535251503826307,-9,0,17,15,2,-3,-3,-5
1535251503826307,2,-29,-15,-2,-5,-3,-3,-4
1535251503854883,-8,31,15,-6,1,1,0,1
1535251503854883,8,30,-4,22,0,4,4,3
1535251503856387,-6,-4,16,-30,-2,-3,-3,-3
1535251503856387,0,0,38,3,-2,-2,-1,1
1535251503876940,5,-18,-52,-9,-10,-3,1,-1
1535251503876940,-8,35,17,19,8,2,1,0
1535251503878446,-4,-9,-35,-8,0,2,1,4
1535251503878446,-7,15,-14,5,2,1,-2,7
1535251503884460,-8,-17,-26,-13,-4,-5,-7,-37
1535251503884460,-2,-12,23,1,-5,-2,-7,-6
1535251503886467,5,18,47,21,1,3,2,5
1535251503886467,-3,7,-44,-9,3,3,0,-9
1535251503907060,-1,6,-49,-1,-1,1,0,15
1535251503907060,2,-10,40,-1,-2,-3,-1,4
1535251503909026,-3,5,3,7,-2,-2,-1,-8
1535251503909026,0,7,-1,-7,-2,0,-1,11
1535251503929619,3,5,22,3,5,0,0,7
1535251503929619,4,-26,-46,10,-2,-1,-2,-1
1535251503931084,-1,-14,34,-18,-6,-5,-1,2
1535251503931084,-1,12,-23,-5,2,1,1,-1
1535251503944660,-2,20,25,37,-4,-2,-2,3
1535251503944660,6,5,-12,-40,5,1,1,-3
1535251503946146,-22,-12,-9,4,-4,-3,-3,-2
1535251503946146,1,1,-12,3,5,2,1,-4
1535251503967220,0,-24,-6,-17,-4,-1,-1,-4
1535251503967220,4,2,47,11,-4,-3,-5,7
1535251503968716,0,-13,-27,0,1,2,1,-2
1535251503968716,2,20,33,-3,0,-2,0,-1
1535251503989740,2,-4,-28,-9,-4,-1,0,7
1535251503989740,-2,2,13,7,0,3,-1,-5
1535251503991246,5,-2,1,-6,0,0,0,3
1535251503991246,-5,-3,19,17,-3,-1,-1,-4
1535251504003818,1,1,4,-3,2,2,1,1
1535251504003818,1,-5,-71,-21,-4,0,0,3
1535251504010796,0,21,33,15,2,0,-1,-2
1535251504010796,-4,-12,16,1,-1,1,-1,0
1535251504027343,4,-3,-15,-5,1,0,0,3
1535251504027343,6,-4,-8,1,2,-1,-2,-1
1535251504028843,-10,12,53,9,-2,1,-1,2
1535251504028843,-3,-11,-54,-30,-1,-3,1,-3
1535251504049528,7,21,9,4,1,2,0,5
1535251504049528,-3,-4,40,-4,-5,-3,-4,-4
1535251504051404,12,10,53,17,3,0,0,1
1535251504051404,-6,-14,10,0,-5,-3,0,0
1535251504064440,0,-7,24,2,3,-1,1,-3
1535251504064440,-3,8,-31,5,0,-2,1,0
1535251504070955,0,8,-2,-6,-1,1,1,1
1535251504070955,-4,-5,18,1,-1,-2,-1,-2
1535251504087502,7,-17,-21,-5,0,0,0,0
1535251504087502,-2,58,3,0,0,1,0,5
1535251504089005,-4,11,-30,-4,-2,1,1,0
1535251504089005,4,7,-18,2,3,0,-1,1
1535251504109560,-12,2,81,14,-3,-3,-1,-5
1535251504109560,2,-18,-37,-6,-3,-1,2,1
1535251504111065,-1,5,-44,-12,0,2,1,-5
1535251504111065,3,5,-11,1,-4,-3,-3,-1
1535251504124100,3,23,17,21,3,0,0,2
1535251504124100,-5,-7,-16,-8,-5,-2,-2,-1
1535251504130655,5,-47,25,-4,1,0,2,3
1535251504130655,-3,-24,-19,11,-2,-1,-4,-4
1535251504147198,-11,-7,-28,-22,0,-1,0,-2
1535251504147198,-2,-8,-22,-7,0,0,-1,-2
1535251504148665,4,15,-13,1,-2,-1,1,-1
1535251504148665,1,10,23,17,0,0,1,1
1535251504169757,-3,-24,-22,-19,-5,-3,-4,-2
1535251504169757,-1,-32,23,12,-1,-2,-2,-3
1535251504171227,-1,19,9,1,-3,-1,-2,-1
1535251504171227,-1,-7,-59,-11,0,-2,-3,-6
1535251504183796,-10,15,28,5,0,2,1,3
1535251504183796,12,-26,-45,-7,-3,-1,1,2
1535251504190814,3,13,-17,3,2,-1,1,-5
1535251504190814,-1,1,25,-5,-1,-1,-1,5
1535251504207317,1,0,4,-2,-1,-1,0,-2
1535251504207317,-1,14,44,16,2,1,1,-3
1535251504208823,-1,-11,-28,2,2,0,-2,0
1535251504208823,-4,8,4,-14,-3,-3,0,0
1535251504229417,6,5,1,-3,-2,2,3,2
1535251504229417,0,7,-17,4,0,-1,1,3
1535251504231414,-8,-20,-89,-17,1,-1,-2,-2
1535251504231414,-2,9,-4,5,6,3,2,-2
1535251504243414,-3,-9,28,9,-4,-3,-2,-1
1535251504243414,1,13,-56,-11,0,0,0,-3
1535251504251437,0,-7,83,28,-1,-3,-3,1
1535251504251437,0,-1,-44,-50,-7,-2,-2,0
1535251504266478,-3,14,-13,4,1,2,0,-2
1535251504266478,-1,-12,-6,-6,-2,2,0,-1
1535251504266978,1,1,-16,2,-2,0,-2,-1
1535251504266978,1,10,53,18,1,-1,0,-1
1535251504289036,7,-2,7,-5,-2,-5,-3,5
1535251504289036,-15,-26,-6,-11,-5,1,-2,-3
1535251504289601,7,25,-10,-6,-6,1,2,2
1535251504289601,1,-20,-21,9,3,0,-1,-3
1535251504303075,-2,1,22,-17,1,1,2,-1
1535251504303075,0,20,-10,0,2,-2,-1,1
1535251504312097,-12,15,35,3,-2,0,0,2
1535251504312097,0,-31,8,4,-2,1,-2,-1
1535251504326134,5,-6,-24,6,3,-1,-3,-4
1535251504326134,0,6,18,10,3,-1,-1,-3
1535251504327300,5,-5,12,-8,1,-2,-2,-1
1535251504327300,-3,9,13,3,0,0,1,-1
1535251504348739,0,-1,-30,-2,-1,1,1,3
1535251504348739,-4,-12,23,-1,-2,-2,-3,-1
1535251504349793,3,3,-16,-4,0,-1,-2,-1
1535251504349793,2,20,11,3,2,2,0,2
1535251504363278,-5,21,-2,-5,-4,-1,0,-1
1535251504363278,-2,10,52,16,3,-1,-2,-3
1535251504371297,4,-18,-10,0,3,0,-1,3
1535251504371297,-4,-16,16,4,-4,-4,-4,-4
1535251504386334,-3,3,-9,-1,2,3,1,-1
1535251504386334,5,18,-21,-7,-1,2,2,5
1535251504387297,0,2,-1,0,1,-2,-1,-5
1535251504387297,1,-2,19,4,1,0,1,-3
1535251504408853,5,-16,-6,2,1,1,2,0
1535251504408853,-6,5,8,0,-3,-3,-6,-4
1535251504409987,2,-19,-14,-2,-1,-1,-3,4
1535251504409987,0,10,18,0,-1,-2,-4,-2
1535251504423393,0,-4,11,4,-2,-3,0,-4
1535251504423393,4,3,-6,-2,4,2,3,4
1535251504431417,0,-4,-61,-18,0,2,1,0
1535251504431417,-6,-5,69,14,-4,-3,-2,-4
1535251504446455,-1,14,13,5,6,0,-2,2
1535251504446455,2,-4,-7,-5,-4,-1,1,0
1535251504446956,-6,-27,-6,-5,1,0,-2,-2
1535251504446956,6,20,-32,-10,0,4,6,7
1535251504469014,0,10,17,5,-1,-1,-2,1
1535251504469014,3,-12,-9,-3,1,2,1,-4
1535251504469578,-4,18,-9,-3,-2,-3,0,-1
1535251504469578,10,2,18,5,1,-1,2,12
1535251504499597,2,-12,43,6,0,-5,-6,-5
1535251504499597,9,0,-8,-7,-2,3,4,7
1535251504500598,-4,-11,-12,-3,-2,-2,-2,-5
1535251504500598,4,-1,2,4,3,1,1,19
1535251504506614,-9,-1,-40,-9,-5,-4,0,-30
1535251504506614,-1,-6,48,11,3,-4,-4,-6
1535251504507117,-1,3,21,5,-2,-2,-3,4
1535251504507117,-6,0,-25,-16,0,-1,-3,-6
1535251504528672,-2,0,1,-1,3,5,3,7
1535251504528672,-6,-4,-42,2,-4,-3,1,0
1535251504529725,4,8,14,-11,1,0,3,-3
1535251504529725,-8,-11,-4,-13,-7,-3,-4,-11
1535251504543211,1,-29,-12,-1,0,0,-2,3
1535251504543211,-1,-1,-16,5,-1,-3,-1,-1
1535251504551733,-1,4,23,-12,-2,-2,-4,0
1535251504551733,3,-11,-7,10,3,1,0,-5
