timestamp,x,y,z
1535265641103861,54.125,-216.5,-218.125
1535265641110882,44.3125,-166.438,-242.063
1535265641133441,-4.1875,-197.688,-217.25
1535265641163020,-49.25,-192.375,-112.25
1535265641170648,-101.063,-136.125,-90.5625
1535265641193102,-66.4375,-111.063,-93.125
1535265641215659,-19.8125,-60.6875,-105.125
1535265641230754,-40.3125,-75.375,-1.75
1535265641253358,-275.438,-180.188,-141.563
1535265641275823,-389.688,-439.75,-131.313
1535265641290859,-158.313,-53,-164.5
1535265641313419,-166.938,-140.688,-101.625
1535265641335596,-225.563,-89.125,-118.313
1535265641350519,-140.063,-91.625,-49.9375
1535265641380600,-66.3125,-126.938,-52.125
1535265641403690,-144.063,-116.5,-131.625
1535265641410677,-85.75,-9.8125,-64.6875
1535265641433270,-120.75,51.6875,-66.3125
1535265641455798,-103.75,62.125,-103.75
1535265641470838,-87.625,48.375,-136.813
1535265641492895,-95.3125,60.0625,-147.063
1535265641515578,-85.875,70.25,-150.375
1535265641530496,-70.5,109.188,-136.75
1535265641553055,-122.938,137.688,-137.375
1535265641575615,-170.438,183.75,-151.5
1535265641590655,-104.313,178.625,-124.875
1535265641613216,-161,245.563,-156.25
1535265641635778,-142.375,255.188,-157.5
1535265641658335,-157.875,261.813,-121.25
1535265641673379,-186.75,266.625,-90
1535265641695435,-159.313,240.188,-93.3125
1535265641710475,-160.063,207.813,-62.875
1535265641733033,-108.563,158,-18.6875
1535265641755596,-82.4375,150.25,-44.9375
1535265641770634,-88.75,143.313,-56.125
1535265641793223,-74.875,106.625,-48.25
1535265641815754,-83.875,98.75,-62.875
1535265641830892,-29.625,64.375,-43.0625
1535265641853002,-22.5,46.1875,-51.3125
1535265641875551,-16.9375,3,-36.25
1535265641890491,-16.5,-5.3125,-23.4375
1535265641913155,-47.4375,30.0625,-0.25
1535265641935608,-60,15.5,-24
1535265641950649,-87.375,49.6875,-62.25
1535265641973274,-115,42.875,-63.5625
1535265641995783,-164,25.625,-44.75
1535265642010810,-177.438,20.8125,-39.3125
1535265642033370,-170.375,13.3125,-43.375
1535265642055929,-169.625,22.75,-26.4375
1535265642070970,-144.875,12.8125,-18.9375
1535265642093027,-116.875,29.25,0.5
1535265642115588,-42.25,14.3125,-18.25
1535265642130626,1.3125,4.6875,-19.6875
1535265642153230,6.0625,-1.125,-20.0625
1535265642175750,6.5625,-5.8125,-10.9375
1535265642190789,0.875,-8.3125,-8.3125
1535265642213350,5.125,-9.9375,6.0625
1535265642235907,9,-7.5625,10.4375
1535265642257972,6.1875,0.0625,13.4375
1535265642273509,11.625,-2.75,0.3125
1535265642295603,22.5,-6.875,2.875
1535265642310608,11.625,-7.3125,14.3125
1535265642333201,-10.875,-20.375,23.375
1535265642355890,4.6875,-11.5,9.5
1535265642370802,42.1875,-17.9375,-20.3125
1535265642393363,60.6875,-4,-53.5625
1535265642415886,46.3125,-2.4375,-55.625
1535265642430925,-6.625,8.375,-37.625
1535265642452988,-47.6875,5.1875,-23.6875
1535265642475549,-59.1875,-7.5625,-4.375
1535265642491133,-87.0625,4.1875,1.9375
1535265642513250,-83.9375,-2.125,-2.5
1535265642535799,-86.25,-6.9375,-6.1875
1535265642550849,-79.4375,-21.625,-3.875
1535265642573403,-55.875,-50.1875,10.1875
1535265642595912,-46.375,-60.875,3.625
1535265642610905,-26.125,-62.25,-11.9375
1535265642633466,-7.5,-54.625,-21.3125
1535265642656025,-14.875,-51.5625,-75.125
1535265642670563,-19.0625,-11.9375,-81.8125
1535265642693163,-15.8125,-7.1875,-106.875
1535265642715686,-77.875,24.875,-76.75
1535265642730786,-163.25,94.75,-69.5
1535265642753368,-212.375,84.125,-109.188
1535265642775888,-274.188,65.4375,-131.063
1535265642790384,-259.313,-4.8125,-117.313
1535265642813487,-254.625,-71.6875,-165.625
1535265642835617,-244.625,-186,-203.688
1535265642850867,-78.375,-105.563,-67.75
1535265642873612,-75.1875,-135.563,-98
1535265642895663,-116.688,-67.9375,-37.9375
1535265642910703,-70.9375,23.4375,-22.75
1535265642933262,-44.3125,-3.5625,-13
1535265642955823,99.5,24.125,75.9375
1535265642970359,111.188,114.188,36.1875
1535265642993421,24.625,141.813,-69.0625
1535265643015982,-121.75,52.25,-58.875
1535265643031067,-106.938,67.875,-76.9375
1535265643053083,-70,53.9375,-51.4375
1535265643075719,-59.625,29.625,-33.5625
1535265643090681,-8.375,9.625,3.25
1535265643113351,-40.75,0.9375,-14.8125
1535265643135919,-61.75,15.8125,-25.0625
1535265643150840,-24.625,-12.3125,-65.25
1535265643173401,-28.5,10.875,-72.125
1535265643195463,4.625,-49.6875,-53.625
1535265643210763,88.5,165.125,-102.438
1535265643233335,39,143.813,-115.875
1535265643256290,-7.625,-12.625,-148.438
1535265643270830,98.875,2.3125,-196.563
1535265643293388,-39.5,-144.125,-169.375
1535265643323240,13,-291.313,-32.1875
1535265643331037,179.563,-316.125,-1.4375
1535265643353118,200.875,-205.125,-141.5
1535265643376110,203.063,-239.688,-139
1535265643391150,161.125,-73.4375,-93.9375
1535265643413228,9.1875,17.375,-97.625
1535265643435775,-99,-40.6875,-130.438
1535265643450814,-144.563,-0.75,-30.125
1535265643473368,-11.875,69.8125,60.6875
1535265643495928,8.0625,99.375,64.875
1535265643510968,-103,104.688,48.75
1535265643533026,-246.563,80.875,30.625
1535265643555653,-235.438,79.6875,-31.125
1535265643570627,-98,100.5,-97.125
1535265643593227,-298.063,39.5625,-65.1875
1535265643615784,-273.688,38.125,55.1875
1535265643630824,-163.563,50.1875,42.125
1535265643653359,-80.8125,28.4375,-27.5
1535265643675906,-54.875,4.875,-53.625
1535265643690946,-99.9375,18.6875,-35.0625
1535265643713005,-68.1875,15.5625,-41.875
1535265643735596,-7.8125,2.6875,-69.125
1535265643750604,48.5,-0.25,-102.688
1535265643773167,75,0.3125,-121
1535265643795830,117.563,64.9375,-172.25
1535265643810814,-0.875,50.0625,-83.75
1535265643833392,19.375,17.875,-39.8125
1535265643855908,60.6875,-6.9375,-56.4375
1535265643877945,40.375,22.375,-48.625
1535265643893540,56.625,6.5,-35.3125
1535265643915702,25.125,-0.8125,-52.4375
1535265643930585,110.813,17.5,-43.1875
1535265643953175,87.8125,-21.875,-35.8125
1535265643975720,97.25,-4.75,-46.125
1535265643990753,44.25,38.875,22.625
1535265644013326,-27.875,10,54.125
1535265644035869,-38.3125,49.25,-11.5625
1535265644051010,-24.625,-49.625,32.5625
1535265644073463,4.375,-67.0625,-3.5
1535265644095566,-28.1875,-70.875,3.625
1535265644110565,-34.9375,-69.875,-2.5625
1535265644133123,-38.5625,-50.375,6.0625
1535265644156183,-33.875,-39,10.5
1535265644170722,-15.75,-30.5,11.75
1535265644193383,-11.9375,-26.25,7.6875
1535265644215597,-11.5625,-19.4375,2.375
1535265644230462,-6.5,-12.75,1.6875
1535265644253039,-11.25,-12.75,-0.125
1535265644275585,-9.125,-11.9375,-0.875
1535265644290624,-14,-14.1875,3.0625
1535265644313217,-14.125,-15.9375,7.8125
1535265644335794,-5.125,-12.8125,1.25
1535265644350780,-5.6875,-6.9375,2.3125
1535265644373361,-6.25,-6.875,5.0625
1535265644395420,-10.0625,-9.8125,3.9375
1535265644410462,-14.625,-12.1875,4.4375
1535265644433527,-13.375,-5.3125,0.375
1535265644455694,-1.875,-0.875,0.375
1535265644471164,-4.0625,-4.1875,-0.1875
1535265644493235,-9.1875,-6.6875,1.5625
1535265644515743,-7.9375,-5.9375,2.875
1535265644530784,-5.25,-6.375,1.5
1535265644553452,-5.8125,-8.25,0.5
1535265644575512,-9.25,-11.375,0.9375
1535265644590551,-7.875,-7.3125,2.8125
1535265644613251,-5.125,-7.4375,4.9375
1535265644635675,-3.9375,-8.8125,2.375
1535265644650828,-10.125,-10.25,3.125
1535265644673271,-12.0625,-11.5,3.625
1535265644695849,-11.1875,-11.5,5.1875
1535265644710876,-6.0625,-5.625,0.125
1535265644733108,-5.5,-5.3125,2.5
1535265644755583,-5.8125,-4.875,4.0625
1535265644770669,-2.0625,0,2.6875
1535265644793183,-1.0625,-2.625,2.5625
1535265644815744,-4.0625,-3.6875,1.5625
1535265644830900,-2.625,-3.75,3.5625
1535265644853341,-2.625,-4.5,2.625
1535265644875902,-7.4375,-4.4375,0.125
1535265644890543,-5.5,-2.375,-0.125
1535265644913146,-7.3125,-5.5625,0.875
1535265644935662,-4.625,-4.75,-0.5625
1535265644950744,-4.1875,-3.5,-1.25
1535265644973260,-3,-5.0625,-1.1875
1535265644995868,-3.9375,-4.8125,0.3125
1535265645011371,-0.875,-4.75,0.75
1535265645033038,-4.1875,-5.6875,2
1535265645055529,-2.4375,-4.0625,-1.0625
1535265645070523,-2.875,-2.75,-0.0625
1535265645093080,-4.75,-3.3125,0.9375
1535265645115683,-8.8125,-6.75,2.75
1535265645130767,-8.5625,-8.5625,1.9375
1535265645153334,-12.5,-12.25,5.4375
1535265645175848,-21.25,-24.3125,10
1535265645190880,-47.1875,-38.4375,22.5625
1535265645212940,-84.4375,-60.375,34.5625
1535265645235544,-121.5,-84.625,49.25
1535265645250540,-152.563,-86.625,64.3125
1535265645273104,-179.5,-2.1875,17.6875
1535265645295660,-71.75,-32.1875,12.375
1535265645310713,4.625,-23.6875,1.9375
1535265645333264,-0.125,-18.75,-7.25
1535265645355826,-2.1875,-11.9375,-3.375
1535265645370477,-1.25,-5.4375,-2.8125
1535265645393057,-2.375,-5.4375,-4.75
1535265645415633,0.125,-4.125,-6.4375
1535265645430635,6.375,-3.8125,-9.1875
1535265645453203,8.4375,-2.0625,-9.375
1535265645475760,2.5625,-2.25,-7.1875
1535265645490877,-5.4375,-4.5625,-7.1875
1535265645513408,-10.375,-16.3125,-7.8125
1535265645535921,-12.375,-27.3125,-9.0625
1535265645550955,-16.125,-37.25,-20.4375
1535265645580536,-5.125,-53.4375,-25.625
1535265645595574,0.3125,-34.125,-25.25
1535265645610619,10.5,-14.625,-24.1875
1535265645633173,22.0625,-20.8125,-25.9375
1535265645655871,23.25,-8.625,-12.5
1535265645670820,22.875,-1.9375,-10.25
1535265645693380,21,-9.5,-24.125
1535265645715903,23.0625,-4.9375,-28.6875
1535265645730973,27.625,6.625,-19.1875
1535265645753040,37.5,22.875,-25.1875
1535265645776058,43.6875,23.0625,-29.75
1535265645790594,41.0625,21.3125,-38.5625
1535265645820674,34.1875,21.125,-35.4375
1535265645835713,31.4375,21.5,-27.5
1535265645850753,37.25,26.75,-36.6875
1535265645873311,33.75,24.0625,-38.3125
1535265645895874,36.1875,23.1875,-31.25
1535265645910411,34.5625,24.1875,-26.3125
1535265645933021,24.8125,20.625,-26.375
1535265645955582,5.1875,16.6875,-21.0625
1535265645970624,-0.375,9.0625,-9.375
1535265645993192,2.625,0.75,-2.0625
1535265646015726,-12.9375,-2.5625,-0.625
1535265646030737,-14.8125,-1.0625,-3.125
1535265646053291,-6,3.4375,-5.75
1535265646075853,5.25,-0.625,-5
1535265646090970,-7.8125,-5.4375,-4.0625
1535265646112984,-13.75,-4.1875,0.4375
1535265646135551,-17.625,-8.125,2.25
1535265646150655,-6.9375,-2.9375,-0.75
1535265646173121,0.625,2.375,-2.6875
1535265646195718,2.875,0.9375,-2.75
1535265646210712,5.5625,0.5,-4.625
1535265646233276,1.1875,-1.625,-1.5625
1535265646255830,-0.5,-2.3125,-0.0625
1535265646270886,1.1875,-0.9375,-0.4375
1535265646292945,4.9375,0.125,-0.1875
1535265646315504,6.9375,2.3125,-2.375
1535265646331081,3.5625,0.3125,-2.125
1535265646353152,1.8125,0.6875,-2.25
1535265646375662,0.0625,0.9375,-1.125
1535265646390807,4.625,2.6875,-0.9375
1535265646413263,8.4375,4.375,-1.6875
1535265646435823,5.6875,3.6875,-1.6875
1535265646450861,1.625,2.4375,-0.6875
1535265646473421,0.875,1.0625,0.25
1535265646495515,2,0.9375,0
1535265646510526,3.0625,0.625,-2
1535265646533088,2,0.5625,-1.8125
1535265646555646,-1.125,0,-1.1875
1535265646570753,-2.9375,-0.875,1.75
1535265646593241,0.125,-1.4375,-0.75
1535265646615801,-1.25,-1.0625,-0.3125
1535265646630841,-0.375,-1.125,-1.875
1535265646653902,0.5,-0.5,-1.125
1535265646675458,-2.875,0.5,-0.5
1535265646691007,-3.25,0.125,-2.25
1535265646713062,-1.9375,0.3125,-2.5
1535265646735687,1.0625,0.375,-2.125
1535265646750659,1.0625,-0.125,-1.6875
1535265646773316,-0.625,0.125,-0.5625
1535265646795784,-0.3125,0,-1
1535265646810819,0.8125,0.9375,-1.75
1535265646833421,2.5625,0.3125,-3.5625
1535265646855939,-2.25,-0.875,-0.625
1535265646870496,-1.9375,-1.75,1
1535265646893039,1.625,-1.125,-0.0625
1535265646915880,0.125,0.25,-1.1875
1535265646931237,1.125,-0.3125,-2.5625
1535265646953202,-2.125,-0.5,-0.9375
1535265646975863,0.1875,0.1875,-3.1875
1535265646990878,-0.25,-0.5,-1.1875
1535265647020878,-0.0625,-1.0625,-1.0625
1535265647035919,-0.1875,-0.9375,-2.5
1535265647050470,-0.625,-0.75,-1.5625
1535265647073017,0,-1.1875,-1.375
1535265647095618,-1.8125,-1.0625,-0.25
1535265647110618,-0.5,-1,-1.8125
1535265647133182,-0.375,-0.0625,-0.375
1535265647155843,-0.625,-0.6875,-0.25
1535265647170869,-1.625,-1.5,-0.0625
1535265647193341,-2.75,-1.625,-0.5
1535265647215946,-2,-1.8125,-0.4375
1535265647231440,0.4375,-0.5625,-0.9375
1535265647253501,0.6875,-0.375,-1.5
1535265647275568,-0.5,-0.1875,-0.9375
1535265647290598,0.6875,0.1875,-1.8125
1535265647313156,0.25,0.125,-1.5
1535265647335717,0.0625,-0.6875,-0.9375
1535265647350756,-0.0625,-1.125,-1.5
1535265647373315,-0.875,-1.6875,-0.5
1535265647395373,2.125,0.5625,-0.375
1535265647410414,2.1875,-0.5625,-2.75
1535265647432976,-2.4375,-1.5,-0.375
1535265647455620,-3.9375,-1.8125,-0.5625
1535265647470576,0.0625,0.5625,-1
1535265647493361,1.9375,0.3125,-1.6875
1535265647515695,1.25,-1.25,0.0625
1535265647530735,-0.0625,-1.375,-1.125
1535265647553296,1.3125,0,-1.375
1535265647575855,0.5,0.9375,-0.8125
1535265647590930,-0.4375,0.5,-1.125
1535265647613462,-0.4375,0,-1.75
1535265647635513,-1.125,-1.375,-1.3125
1535265647650555,-0.9375,-1.25,-1.125
1535265647673115,0,-0.25,-1.6875
1535265647695714,0.0625,-0.375,-2
1535265647710754,-1,-0.875,-1.625
1535265647733390,0.25,-0.5625,-1.125
1535265647763353,0.0625,-0.875,-1.75
1535265647770874,-0.25,-0.25,-0.9375
1535265647793478,0.4375,0.3125,-0.9375
1535265647815607,0.6875,1.25,-1.6875
1535265647830586,1.375,0.3125,-2.8125
1535265647853093,-0.625,0.75,-1.125
1535265647875735,-1.125,-1.375,-0.375
1535265647890821,-2.4375,-0.75,-0.375
1535265647913332,-1.3125,-0.8125,-0.3125
1535265647935936,0.5625,-0.3125,-1.5
1535265647950923,0,0.3125,-0.5
1535265647973048,0.4375,-0.0625,-1.125
1535265647995574,1.25,0.0625,-0.9375
1535265648010579,0.875,0.125,-1.3125
1535265648040661,0.25,-0.0625,-1.8125
1535265648055799,0.0625,-0.875,-1.875
1535265648070742,0.375,0.0625,-0.4375
1535265648093302,-1.25,-0.8125,0.1875
1535265648115899,0,0.1875,-1.375
1535265648130903,1.6875,-0.6875,-3
1535265648153092,1.0625,-0.3125,-2.1875
1535265648175625,-1.375,-1.5,-1.125
1535265648190570,-0.4375,-0.875,-1.625
1535265648213154,1.9375,-0.125,-3.5625
1535265648235681,0,0.125,-2.25
1535265648250766,-1,0.25,-1.4375
1535265648273351,-0.375,-0.25,-1.25
1535265648296007,0.125,-1.125,-0.25
1535265648318404,2.1875,-0.5,-2.1875
1535265648332941,1.375,-1.25,-1.4375
1535265648355500,-0.375,-0.3125,-0.5625
1535265648378061,0.0625,-0.3125,-0.125
1535265648393142,-1.3125,-0.625,0.875
1535265648415701,-1.5,-1.25,-1.1875
1535265648438263,-0.3125,-1.25,-1.5
1535265648453301,1.0625,-0.1875,-0.9375
1535265648475819,0.8125,-0.1875,-1.4375
1535265648498377,-2.25,-1.25,-0.9375
1535265648512916,-4.0625,-0.3125,0.625
1535265648535522,-2.375,0.6875,0.875
1535265648558084,1.3125,2,-1.125
1535265648573128,1.625,1.625,-1.6875
1535265648595693,-0.375,0.0625,-1.1875
1535265648618293,0.125,-0.1875,-0.3125
1535265648633334,1.8125,-0.375,-1.4375
1535265648655611,2.0625,-0.4375,-2.0625
1535265648678111,0.0625,-1.5,-2
1535265648693096,-0.875,-1.9375,-1
1535265648715611,0.8125,-1.5,-2.375
1535265648738172,0.875,-0.1875,-1.25
1535265648753211,0.9375,0,-1.5625
1535265648775837,-0.75,-0.3125,-1.625
1535265648798334,-1.375,-0.1875,-0.1875
1535265648813376,-0.25,-0.125,-1.125
1535265648835491,1.625,0.125,-2.375
1535265648858130,0.6875,-0.4375,-1.6875
1535265648873713,-1,-0.25,-1.3125
1535265648895609,0.875,-0.0625,-1.875
1535265648918208,2.8125,0.3125,-1.875
1535265648933252,1.5,-0.5625,-1.0625
1535265648955770,0.75,-1.5,-1.5625
1535265648978328,0.0625,-1.0625,-2.25
1535265648993372,-1.5625,-1.5,-0.75
1535265649015426,-0.8125,-0.5625,-1.5
1535265649038038,2.625,0.0625,-2.6875
1535265649053079,1.8125,0,-2
1535265649075637,1.0625,0.3125,-2.0625
1535265649098198,-0.25,0.8125,-2.625
1535265649113240,-0.375,1.75,-2.8125
1535265649135810,0.875,2.1875,-2.4375
1535265649157862,-2.3125,2.5625,0.3125
1535265649173431,-9.0625,3.25,3.875
1535265649195456,8.875,2.6875,-5.875
1535265649218051,14.4375,5.4375,-5
1535265649240577,4.0625,-2.5,-1.25
1535265649255704,-15.375,0.6875,-4.8125
1535265649278281,-10.625,1.125,-4.1875
1535265649300897,-1.75,-2.6875,-6.3125
1535265649315933,2.125,3.9375,-6.0625
1535265649338028,0.75,-0.375,-6.6875
1535265649360550,-2.8125,-0.1875,-7.5625
1535265649375626,-2.0625,1,-5.875
1535265649398278,1.4375,-0.25,-4.3125
1535265649420748,0.8125,1.25,-4.3125
1535265649435903,-0.6875,-1.5,-2.0625
1535265649458348,-1.0625,-2.0625,-1
1535265649480868,-1.4375,-3.875,1.25
1535265649519009,-1.125,-2.5,2.5625
1535265649519476,2.1875,-1.75,2.625
1535265649540532,1.9375,-1.375,1.3125
1535265649563086,0.6875,-1.125,0.6875
1535265649593828,-0.25,-1.5625,0.5
1535265649594790,-1.5,-1.625,-0.0625
1535265649615844,-1.9375,-0.875,-0.75
1535265649654000,-0.1875,-1,-1.75
1535265649654445,0.125,-0.5625,-2.0625
1535265649683059,0.8125,-0.375,-1.4375
1535265649705584,-0.625,-1,-1.125
1535265649720621,-1.5625,-5.3125,3.25
1535265649735702,5,-6.0625,-2.9375
1535265649750702,2.3125,-6.125,-0.1875
1535265649788305,-7.0625,8.4375,-1.875
1535265649803342,8.0625,-11.5625,-0.375
1535265649818381,-6.875,9.5625,-2.25
1535265649840445,0.9375,-6,1.25
1535265649855661,9.25,-10.5625,0.5625
1535265649870522,-3.0625,8.125,-2.1875
1535265649893125,-8.125,12.0625,-1.25
1535265649915644,-2.6875,1.5,1.1875
1535265649930679,1.25,-7.4375,2.875
1535265649953279,2.625,-10.8125,2.8125
1535265649975883,2.25,-10.4375,2.0625
1535265649990841,1,-7.625,1.6875
1535265650013401,-0.375,-2.125,0.4375
1535265650035570,-4.9375,6,-2.625
1535265650050498,-3.3125,8.5,-5.625
1535265650073098,1.9375,-2.125,-2.5
1535265650095623,0.3125,-5.5625,1.5
1535265650110663,-0.5,5.9375,-3.4375
1535265650133281,-0.25,-4.0625,-0.8125
1535265650155780,-1.75,3.4375,-1.375
1535265650170857,-0.25,-3.625,0.0625
1535265650193379,1.4375,1.6875,-1.6875
1535265650215938,-2.3125,1.4375,0.25
1535265650230478,-3,-1.4375,-0.3125
1535265650253049,-0.375,-1.8125,0.1875
1535265650275597,1.8125,-2.5,0.5
1535265650290637,-3.375,3.3125,0
1535265650313198,-3,-2.25,0.5625
1535265650335756,0.0625,-0.8125,-1.4375
1535265650350840,1.1875,-0.5,-3.125
1535265650373364,0.6875,-0.0625,-2.1875
1535265650395419,0.4375,0.25,-1.5
1535265650410457,-0.875,-0.75,-1.6875
1535265650433019,-0.125,-2.4375,-2.4375
1535265650455707,-1.0625,-2.5625,-0.9375
1535265650470615,-1.4375,-1.9375,-0.75
1535265650493219,-3,-3.125,-1.5625
1535265650515746,-5.9375,-4,-0.25
1535265650530783,-15.375,-6.25,3.125
