timestamp,x,y,z
1535265659335404,-187.875,164.188,-309.875
1535265659357965,-181.813,217.25,-308.625
1535265659373516,-39.1875,141.438,-373.25
1535265659395807,-32.4375,-19.6875,-189.438
1535265659418124,-17.1875,-10.0625,-159.313
1535265659441456,28.125,-20.1875,-92.5625
1535265659456727,71.75,-13.3125,-54.5
1535265659478284,68.0625,18.75,48.5625
1535265659493324,-59.625,1.125,40.875
1535265659516886,-104.875,82.75,-18.5
1535265659562043,-17.9375,55,50.0625
1535265659571030,59.125,44.4375,-44.0625
1535265659578602,38.5,39.9375,-111.625
1535265659599106,25.9375,-26.25,-49.3125
1535265659614647,29.125,5.9375,-14.1875
1535265659636705,44.9375,13.75,-63.5625
1535265659680823,88,65.125,-1.9375
1535265659688343,50,114.063,50.25
1535265659703909,79.125,137.25,82.125
1535265659718447,1.0625,129.563,5.1875
1535265659734490,-45.5,-16.1875,-108
1535265659755576,-66.25,-10,-49
1535265659778635,-87.5,-42.75,-68.5625
1535265659794679,-46.25,2.9375,-4.5625
1535265659815813,-25.1875,-15.4375,-63.8125
1535265659839297,93.875,-12.75,-12.4375
1535265659854338,-13.625,2.5,-23.9375
1535265659875395,95.6875,-45.125,-64.0625
1535265659898956,124,-84.875,-28.6875
1535265659914498,109.75,-67.3125,-60.4375
1535265659935622,151.938,-47.8125,-67.25
1535265659958616,159.063,-22.4375,-19.5625
1535265659975163,155.875,-8.25,-56.1875
1535265659997228,46.125,39.25,28.3125
1535265660018776,166.063,-10.875,-27.25
1535265660034365,-55.125,-58.875,-30.25
1535265660057315,-55.5,-8.5625,-30.1875
1535265660078935,80.9375,34.75,-24.0625
1535265660094476,28.875,43.25,16.6875
1535265660117055,-15.9375,68.5,10.3125
1535265660138679,34.5625,56.9375,21.875
1535265660154637,-36.25,-10.4375,-13.0625
1535265660177196,26,-28.125,-10
1535265660198753,47.9375,-1.5,-11.8125
1535265660214472,-29.375,-19.0625,-18.1875
1535265660236855,-29.125,-8.8125,-27.4375
1535265660275464,24.0625,-2.375,-33.125
1535265660277708,-12.75,1.1875,-15.375
1535265660297022,5.0625,-7.375,-12.5
1535265660318093,1.4375,-6.75,-9.25
1535265660336126,13.1875,-5.625,-14.5625
1535265660357183,12.6875,-10.375,-11.75
1535265660378238,29.75,-14.1875,-2.5
1535265660394281,23.875,-30.5625,-10.25
1535265660416977,0.4375,-23,-28.125
1535265660437953,7.5,-17.9375,-35.6875
1535265660454464,8.9375,-9.5,-54.3125
1535265660477070,28.5,-6.75,-37.1875
1535265660498057,64.8125,-8.625,-1.625
1535265660522622,86.0625,-10.4375,19.375
1535265660537161,18.0625,-46.5625,4.75
1535265660558219,-15,-21.0625,-12.6875
1535265660581278,-2.625,2.25,1.625
1535265660597292,-5.125,-2.3125,11.4375
1535265660617876,11.1875,7.125,6.6875
1535265660641485,24.3125,1.5625,11.0625
1535265660663999,-11.9375,18.0625,-5.75
1535265660679038,-16.3125,-4.125,-1.75
1535265660702756,-15.125,6.9375,-8.375
1535265660723960,-34.125,19.25,-13.875
1535265660739725,-18.375,0.375,-19.875
1535265660762941,0.75,3.6875,-29.5625
1535265660783858,-7.4375,10.6875,-24
1535265660799730,-18.5,-0.875,-23.3125
1535265660830018,-12.6875,-0.8125,-18.8125
1535265660851037,-3.75,0.1875,-17.625
1535265660859564,-0.125,-2.9375,-14.1875
1535265660882622,-9.5,-6.75,-9.625
1535265660903677,-9.4375,-4.1875,-4.6875
1535265660919742,1.0625,1.375,-1.5
1535265660942781,-15.6875,6.4375,-0.75
1535265660963913,-18.625,-6.4375,5.25
1535265660979379,10.375,4.9375,1.75
1535265661002942,5.5625,8.625,-0.9375
1535265661024002,-16.375,8.125,-4.0625
1535265661039567,-13.875,18.25,-1.25
1535265661062600,-2.875,16.9375,0.5625
1535265661083753,-1.875,23,-3.8125
1535265661099700,-2.125,18.5625,-6.625
1535265661122866,-5.8125,6.5,-10.1875
1535265661144357,-1.375,-2.8125,-8.0625
1535265661166501,7.0625,-3.125,9.6875
1535265661182921,12.25,16.75,26.1875
1535265661203980,-14.1875,25.875,47.3125
1535265661219520,-54.25,19.3125,52.625
1535265661242079,-42.125,17.6875,27.875
1535265661263642,-74.5625,22.6875,41.0625
1535265661279679,-8.4375,135,-75.8125
1535265661302252,82.25,-2.75,-47.0625
1535265661323874,-9.8125,-37.4375,20.25
1535265661339840,-89.875,15.6875,-29.25
1535265661361900,6.4375,-57.3125,-37
1535265661385462,60.1875,-53.375,-13.125
1535265661399499,3.5,5.6875,1
1535265661422058,59.125,19.375,3.6875
1535265661445122,112.125,20.875,3.4375
1535265661467954,50.875,42.1875,-7.5
1535265661482223,27.1875,-7.25,5.1875
1535265661505280,53.0625,-52,-18.1875
1535265661519426,0.125,-29.9375,-16.375
1535265661542377,-1.125,7.125,29.125
1535265661565460,-17.5625,12.75,-0.375
1535265661579487,-43.125,5.8125,7.1875
1535265661602104,-44,-18.4375,9.0625
1535265661625100,12.4375,-38.4375,-19.125
1535265661638739,-14.875,-17.8125,4.8125
1535265661661196,-14.8125,24,7.25
1535265661684293,6.3125,34,0.5625
1535265661698293,-3.3125,13.3125,22.5625
1535265661721454,5.375,-11.25,-7.75
1535265661735446,-17.3125,-34.6875,-4.3125
1535265661758305,-0.625,-22.6875,-3.1875
1535265661781085,-4,17.9375,0.5625
1535265661795552,-16.5625,30.25,14.6875
1535265661818151,6.5625,12,2.625
1535265661841173,12.9375,-18.875,-0.3125
1535265661855713,-20.375,-16.375,10.6875
1535265661878274,9.125,-12.375,0.1875
1535265661901470,-0.6875,8.625,9.5625
1535265661915370,25.875,29.9375,-6.875
1535265661938059,15.3125,12.3125,-7.875
1535265661978037,-3.6875,-1.125,6
1535265661980546,21.0625,1.4375,5.5
1535265661998130,11.875,-13.1875,-2.6875
1535265662021150,30.6875,6.3125,1.5625
1535265662035689,-10.5625,0.8125,34.4375
1535265662058249,8.1875,1,-17.125
1535265662081310,5.875,-7.5625,7.5625
1535265662095349,-6.8125,5.3125,28.125
1535265662118042,9.625,-1.875,-9.8125
1535265662141471,-19.75,-7.875,-1.625
1535265662155508,-8.3125,21,-0.4375
1535265662178073,-57.9375,-19.75,-0.8125
1535265662217676,23.5,-33.875,-5.625
1535265662220235,-45.9375,-7.75,2.125
1535265662239737,45.5625,14.8125,-19.8125
1535265662260794,-66.0625,-8.125,17.9375
1535265662283861,20.6875,-25.5625,-1.75
1535265662307920,-1.6875,0.5625,17.5
1535265662329473,-1,20.3125,-17.8125
1535265662360055,9,5.75,19
1535265662382112,-4.1875,-23.75,-3.8125
1535265662388630,-16.875,-10.8125,12.25
1535265662412696,6.375,11.5625,-7
1535265662434752,-6.25,6.8125,-9
1535265662450294,7.5625,-13.1875,-2.875
1535265662472354,1.1875,-0.9375,-2.25
1535265662477866,-11,1.375,6.5
1535265662492909,6.6875,-4.75,-0.5625
1535265662517017,-5.6875,5.0625,3.625
1535265662538069,8.5,3.5625,-5.0625
1535265662553100,-3.0625,-7.375,5.4375
1535265662575668,1.875,-8,-3.875
1535265662598188,-1.8125,8.9375,0.875
1535265662613229,2.6875,5.75,-3.25
1535265662635800,0.1875,-10.3125,1.0625
1535265662658372,1.25,-6.875,0.125
1535265662672927,-0.5,13.4375,9.8125
1535265662695503,-0.0625,7.75,-6.9375
1535265662718045,-8.625,-2.9375,7.8125
1535265662741111,17.6875,-0.5,0.875
1535265662755645,-0.3125,3,-9.125
1535265662795215,-2.125,0.1875,0.8125
1535265662797718,10.5625,-5.375,2.0625
1535265662832810,-8.3125,12.25,2.1875
1535265662847877,7.625,7.9375,-6.6875
1535265662861890,0.3125,-5.6875,6.625
1535265662876933,12.9375,-10.375,-2.3125
1535265662898024,-7.6875,10.4375,-1.125
1535265662921550,6.0625,30.375,6.5625
1535265662935626,-0.6875,1.0625,-2.3125
1535265662958185,-2.125,9.8125,1.625
1535265662981207,6.125,-5.75,-0.8125
1535265662995746,-4.1875,-9.375,1.8125
1535265663018305,5.9375,3.875,-2.875
1535265663049426,-5.1875,4.6875,2.8125
1535265663055442,4.3125,-4.75,-2.8125
1535265663078465,-3.8125,-2.8125,1.9375
1535265663101527,1.4375,1.8125,-2.4375
1535265663115606,0.75,0.6875,-0.0625
1535265663138164,0.25,-0.3125,-1.5
1535265663161188,-0.6875,-1.5625,0.1875
1535265663175770,0.25,-2.75,0.6875
1535265663198285,0.75,1.0625,1
1535265663221386,-0.9375,2.1875,1.125
1535265663235382,0.9375,-0.1875,-0.375
1535265663257942,-0.25,-1.125,0.625
1535265663280504,0.3125,-0.25,-0.6875
1535265663295542,-0.25,-0.375,1.125
1535265663326164,0,-0.8125,-0.1875
1535265663340663,-1,-0.1875,-0.0625
1535265663355703,1.3125,1,-0.375
1535265663378265,0.0625,-0.375,0.4375
1535265663409346,-0.3125,-0.875,0.0625
1535265663415862,-1,0.125,0.625
1535265663438424,3.1875,7.5,0.6875
1535265663461029,0.375,-8.0625,-7.25
1535265663475526,-1.125,-7.625,3.625
1535265663498196,8.8125,2.5,-1.375
1535265663520646,-7.875,9.125,0.75
1535265663535688,3.6875,0.625,-2.0625
1535265663558242,-0.5625,-4.875,2.8125
1535265663580801,-0.0625,-0.5625,-1.4375
1535265663603864,0.625,1.25,0.75
1535265663618401,-0.5625,1.375,-0.375
1535265663641964,-0.25,0.1875,-1.5625
1535265663655541,0.4375,-1.5,1.5625
1535265663678231,0.875,0,0.25
1535265663700619,-1.3125,1.625,0.125
1535265663715659,0.75,-0.125,0.3125
1535265663738223,0.625,-0.1875,-0.375
1535265663760846,-0.5625,0.125,0.125
1535265663775823,0.375,-0.4375,0
1535265663797881,-0.625,0.1875,0.25
1535265663820441,0.375,0,-0.0625
1535265663835508,-0.25,-0.6875,-0.4375
1535265663858038,1.375,0.125,0.4375
1535265663880601,-0.5625,0.8125,-0.625
1535265663906702,-1.0625,-1.5,0.1875
1535265663918238,0.5,-0.125,-0.125
1535265663940803,0.125,2.4375,-1.0625
1535265663955843,-0.375,-0.9375,-0.25
1535265663977903,0.625,-2,0.25
1535265664000453,-0.6875,0.5,0.0625
1535265664015497,0.0625,-0.1875,0.625
1535265664038022,0.8125,-1.25,0.3125
1535265664060578,-1,-0.1875,-0.625
1535265664075617,-0.125,0.25,-0.75
1535265664098182,0.6875,-1.0625,0.1875
1535265664120783,-1.6875,-1.1875,0.4375
1535265664137281,0.4375,1.5,0.0625
1535265664158359,0.4375,0.375,0.375
1535265664180897,0.375,-1.6875,-0.1875
1535265664196944,-0.75,-1.5625,-0.375
1535265664218035,0.25,-0.25,0.25
1535265664240556,0.9375,0.5,0
1535265664263116,-0.5,-1.125,-0.25
1535265664278195,-0.6875,-1.4375,12.5625
1535265664300718,1.125,11.9375,-3.375
1535265664317262,-8.875,7.5,2.9375
1535265664338353,6.9375,-8.3125,1
1535265664360416,0.4375,-7.1875,0.1875
1535265664377006,-4.6875,3.3125,-0.875
1535265664398488,3.4375,5,-0.875
1535265664420543,-3,0.3125,1.6875
1535265664438584,0.375,-3.25,-0.9375
1535265664459727,-0.375,-2.5,2.375
1535265664480697,1.6875,2.4375,-0.8125
1535265664497417,-1.875,4.4375,0.0625
1535265664518296,-0.375,-2.6875,0.4375
1535265664540359,0.9375,-3.6875,0.1875
1535265664556898,-0.4375,1.3125,-0.0625
1535265664577961,0.8125,2.125,-1
1535265664600514,-1.25,-1.6875,-0.875
1535265664617059,0.125,-1.9375,-1.125
1535265664638118,0.6875,1.125,-0.0625
1535265664660675,-0.6875,0.625,-0.25
1535265664677220,-0.5625,-1,0.125
1535265664698276,-1,-0.625,1.125
1535265664720389,0.6875,1.9375,0.75
1535265664738434,0.1875,1.8125,0.625
1535265664758017,-0.0625,1.875,3.875
1535265664780542,-0.625,3.1875,-0.6875
1535265664797483,-4,1.3125,-2
1535265664818180,3.5,-1.8125,0.3125
1535265664840739,0.3125,-1.4375,0.625
1535265664857249,-1,1.6875,-1.0625
1535265664878307,-0.625,1.0625,0.4375
1535265664900464,-1.5625,0.25,-0.625
1535265664917252,0.375,-1.1875,-0.25
1535265664938101,0.375,-1.1875,0.9375
1535265664960660,1.1875,0.75,1
1535265664977173,-0.125,3.0625,1.9375
1535265664998231,-1.375,-0.3125,-0.0625
1535265665020785,0.5,-1.625,0.0625
1535265665037331,1,-0.3125,0.1875
1535265665058388,0.5,0.625,-0.125
1535265665080944,-0.125,0.1875,1.5
1535265665096989,0.875,0.5625,-0.75
1535265665119548,0.0625,0.25,-1.375
1535265665140603,0.375,-2.4375,-0.6875
1535265665157153,-0.4375,-2.1875,-1.4375
1535265665179708,0.4375,1.8125,0.625
1535265665200901,-0.25,2.625,0.4375
1535265665217204,0.3125,-1.8125,-1.125
1535265665239593,0.5,-2.4375,-0.0625
1535265665268703,-0.5,0.3125,-1.5625
1535265665277285,-0.375,-0.125,-0.625
1535265665299759,-0.375,-1.5,-0.4375
1535265665328828,0.25,-0.75,0.3125
1535265665336849,0.25,0.875,0.5625
1535265665359512,0.9375,1.125,0.5625
1535265665380465,0,0.3125,0.125
1535265665397009,-0.375,-1.6875,0.25
1535265665419573,-1.25,-1.75,0.75
1535265665440629,0.6875,0.9375,-0.8125
1535265665457331,-0.5625,1.4375,-1.0625
1535265665479732,-1.0625,-1.3125,-0.875
1535265665500786,0,-2,-0.5625
1535265665523379,0.25,1.375,0.75
1535265665546909,0.0625,1.4375,-0.25
1535265665568968,-0.625,-0.875,0.5
1535265665576995,-1.4375,-2.125,-0.3125
1535265665599548,1.1875,1.1875,-1.3125
1535265665620618,0.1875,0.875,-0.0625
1535265665637387,-3.4375,-2,-1.25
1535265665659717,-1.5625,-2.3125,-1
1535265665680764,0.1875,-0.8125,0
1535265665696987,0.6875,0.5625,-0.5
1535265665719368,-0.4375,-0.4375,-0.1875
1535265665740424,-1.1875,-1.4375,-0.125
1535265665756968,-1.4375,-1.125,-0.6875
1535265665779730,0.75,1.25,-0.6875
1535265665803616,0.5,0.5,-1.25
1535265665823246,-0.3125,-1.5625,-1.25
1535265665845805,-0.25,-0.625,-0.0625
1535265665861293,-1.625,0.875,0.5
1535265665876287,-0.9375,0.5625,-0.25
1535265665898880,-1,-0.875,-0.75
1535265665921489,-0.8125,-1,-0.6875
1535265665936448,-0.0625,0,-0.9375
1535265665959004,-0.375,1.25,-0.5625
1535265665981063,-1,0,0.5625
1535265665996103,-0.9375,-0.4375,0.5
1535265666018666,1.125,1.4375,0.125
1535265666041230,2.25,1.75,0.5
1535265666056265,-0.25,-0.4375,0.3125
1535265666078925,-1.125,-1.25,0.4375
1535265666103010,-0.25,0.9375,0.5
1535265666141111,0.5,2.4375,1.4375
1535265666142007,0.9375,0.625,0.8125
1535265666161547,-0.5625,1,-0.3125
1535265666192635,-1.75,2.3125,0.6875
1535265666207694,1.125,-0.75,-2
1535265666221202,-6,22,1
1535265666237747,-5.125,44.4375,-3.25
1535265666258909,5.5625,23.1875,-1.0625
1535265666281404,5.25,5.25,-3.4375
1535265666297906,3.3125,9.375,-0.5625
1535265666318973,3.6875,0.5625,0.75
1535265666341061,0.0625,-3.875,-0.4375
1535265666357718,1.0625,-0.625,0.5625
1535265666379124,1.875,0,1.5
1535265666402689,-1.1875,2.6875,-2
1535265666417730,0.9375,1.5625,-0.375
1535265666438787,0.375,-3.375,0.5625
1535265666461460,-0.3125,-2.8125,-0.5
1535265666477885,0.25,3.375,0.3125
1535265666498941,0.3125,3.625,0.0625
1535265666521543,0.375,-2.4375,-0.125
1535265666537548,-0.0625,-3.1875,0.3125
1535265666558709,-0.625,0.9375,0.375
1535265666581159,-0.6875,2.625,-0.4375
1535265666597703,0.4375,-0.6875,-0.125
1535265666618760,1.1875,-1.625,0
1535265666641319,-0.6875,-0.375,0.0625
1535265666658444,-0.1875,1.25,0.1875
1535265666678974,-0.75,0.0625,0.1875
1535265666701483,0.25,-0.9375,0.125
1535265666718026,1.375,0.125,0.1875
1535265666738681,-0.4375,0,0.1875
1535265666761647,-1.0625,-0.0625,-0.3125
1535265666777684,-0.3125,0.3125,-0.1875
1535265666798742,0.6875,-0.5625,0.375
1535265666821298,0.9375,0.6875,-0.125
1535265666837866,-0.8125,0.125,-0.375
1535265666858952,-0.5,-1.3125,0.1875
1535265666881464,0.0625,-0.1875,0
1535265666897506,0.0625,1.125,-0.25
1535265666919062,0.3125,0.25,0.25
1535265666941620,0.0625,-1.125,-1.125
1535265666957662,0.0625,-0.375,-0.4375
1535265666978815,0.0625,-0.0625,-0.0625
1535265667001278,-1.0625,-0.6875,0.125
1535265667016819,0.125,-0.0625,0
1535265667038879,0.625,0.8125,0.1875
1535265667061481,0.5,-0.1875,0.25
1535265667076982,-0.0625,-0.25,0.375
1535265667098537,-0.1875,0.75,0
1535265667121194,0.25,0.1875,-0.375
1535265667137275,0.3125,-0.3125,-0.9375
1535265667160203,0.125,-0.1875,0
1535265667188879,1.25,0.8125,0.6875
1535265667197377,-1.9375,0.5625,0
1535265667220360,0.375,1.0625,-0.875
1535265667241419,1.125,-0.25,0.5625
1535265667256958,-0.3125,-0.375,-0.5625
1535265667280523,0.3125,0.375,-0.6875
1535265667301579,-1.625,-0.625,-0.125
1535265667317122,0.0625,-0.9375,-0.6875
1535265667340470,0.375,0.5625,0.25
1535265667361336,0.6875,1.375,0.3125
1535265667377301,-0.4375,-0.625,-0.1875
1535265667400405,-0.875,-2.0625,0.25
1535265667421530,0.375,0.375,0.3125
1535265667445350,0,1.4375,-0.0625
1535265667459999,0.25,-0.75,0.6875
1535265667490084,-0.1875,-0.8125,0.375
1535265667497201,-0.5625,0.5,0
1535265667520292,1.0625,0.25,1.0625
1535265667541312,0.375,-0.125,1.1875
1535265667557258,-1.5,-2.3125,0.5625
1535265667580373,0.0625,-0.875,-0.0625
1535265667601376,-0.125,1.75,0.3125
1535265667616914,1.4375,1.8125,0.0625
1535265667640673,-0.625,-1,-0.0625
1535265667661033,-0.6875,-1.625,-0.0625
1535265667677076,-0.5625,0,0.3125
1535265667700637,0.4375,0.875,-0.3125
1535265667721294,0.6875,-1.0625,0.3125
1535265667743756,0.625,0,-0.5
1535265667760301,-1,1.0625,-0.1875
1535265667788875,-1.0625,-0.8125,-0.3125
1535265667805417,0.375,-0.5625,0.0625
1535265667820458,0.625,1.25,-0.1875
1535265667841549,0.5625,-0.1875,0.25
1535265667857055,-0.1875,-1.5,0.8125
1535265667880245,0.3125,0.6875,0.5625
1535265667901393,0.75,0.1875,0.375
1535265667917219,2.625,3.375,0
1535265667939299,0.375,-6.3125,-5.0625
1535265667961465,-2.8125,-3.4375,0.625
1535265667976905,5.5625,1.5,-1.8125
1535265667999885,-4.25,4.375,0.4375
1535265668021572,1.9375,1.8125,-1.0625
1535265668044083,-0.5625,-2.1875,1.375
1535265668067644,-0.75,-2.1875,-0.5625
1535265668082685,0.9375,1,-0.0625
1535265668097224,-0.375,1.375,0
1535265668119785,0.5625,0.3125,-0.875
1535265668142843,-1.625,-0.1875,0.5
1535265668157025,0.875,-0.625,0
1535265668179443,-0.625,-0.3125,0.375
1535265668203007,0.8125,0.5,-0.1875
1535265668217044,-0.4375,1.5625,-0.6875
1535265668239609,-0.1875,-1.1875,-0.125
1535265668262689,0.0625,-1.75,0.75
1535265668277201,-0.25,2.125,-0.25
1535265668299762,-0.0625,0.8125,-0.375
1535265668322828,0.8125,-2.1875,0.75
1535265668345384,0.1875,0.6875,0.5
1535265668359966,-0.875,1.625,0.75
1535265668382993,0.4375,-1.6875,-0.1875
1535265668397022,0.375,-1.25,0.5
1535265668419586,-0.1875,1.3125,-0.5625
1535265668442644,0.125,0.5625,-0.25
1535265668457188,-0.375,-2,-0.5
1535265668479741,0.125,0.1875,-0.375
1535265668502803,-0.1875,1.125,0
1535265668523859,1,-0.5,0.375
1535265668539407,-0.0625,0.1875,-0.125
1535265668577103,-0.25,-0.25,0.0625
1535265668591625,-0.4375,-0.5,0.4375
1535265668599563,0.875,1.5,-0.1875
1535265668622835,-0.5625,-0.125,-0.75
1535265668643775,1.3125,-1.5625,-0.3125
1535265668659721,-0.625,-0.125,1
1535265668682836,-0.5625,1,0.0625
1535265668703838,0.375,-0.4375,0.9375
1535265668719378,3.25,4.3125,0.6875
1535265668742446,1.0625,-1.8125,-3.125
1535265668764004,-1.9375,-2.75,0.125
1535265668779546,3.9375,-2.1875,0.1875
1535265668802859,-2.4375,2.4375,-0.25
1535265668823759,0.8125,3.0625,-0.8125
1535265668839705,0.125,-1.6875,1.1875
1535265668862259,-0.1875,-1.25,-0.8125
1535265668883817,0.3125,1.3125,-0.75
1535265668899359,0.125,-0.8125,0.375
1535265668921918,-0.1875,-1.3125,-0.6875
1535265668945501,-0.875,2.0625,0.1875
1535265668959520,-0.1875,1.8125,-0.0625
1535265668982080,-0.25,-2.3125,-0.4375
1535265669003643,1.1875,-1.75,-0.125
1535265669019679,0.375,1.6875,0.3125
1535265669042241,-1.375,0.875,-0.8125
1535265669065310,0.375,-0.5625,0.5
1535265669079338,-0.875,-0.25,1
1535265669101966,0.5625,-0.1875,-0.625
1535265669125492,0.375,-0.5625,0.1875
1535265669139497,0.3125,-0.9375,-0.125
1535265669162058,-1.125,0.5,-0.0625
1535265669185304,-1.25,0.6875,-0.25
1535265669199753,0,-0.5,-0.4375
1535265669222220,0.25,-0.875,0.4375
1535265669245359,0,-0.9375,-0.5625
1535265669259377,-0.6875,0.0625,-0.0625
1535265669282025,0.0625,0.375,0.75
1535265669305021,-0.4375,-0.5,0.5
1535265669319560,0.0625,-0.1875,0
1535265669342213,1.1875,0.75,-0.25
1535265669365213,-1.6875,-0.875,-0.0625
1535265669379722,-0.4375,-2.4375,-0.4375
1535265669402279,0.4375,1.25,0.5
1535265669425347,-0.25,0.5625,0.4375
1535265669446399,-0.6875,-1.6875,0
1535265669461948,0.625,0.875,0.6875
1535265669485001,0,0.1875,0.5625
1535265669506155,0,-0.8125,-0.4375
1535265669522098,-0.5,-0.8125,0.0625
1535265669545160,-0.25,0.6875,-0.1875
1535265669566217,-0.875,1.125,-0.5
1535265669582259,0.875,-0.75,-0.1875
1535265669605319,-0.4375,-2.5625,0
1535265669626417,0.1875,0,-0.5
1535265669642197,-0.125,1.875,0.8125
1535265669664980,0,1.1875,0.4375
1535265669687542,-0.25,-1.5,0
1535265669710100,0.0625,-0.625,-0.8125
1535265669725240,-0.375,0.3125,-0.4375
1535265669747697,-0.0625,-0.1875,0.25
1535265669762276,0.125,0.3125,0.3125
1535265669785298,0.25,0.6875,0.625
1535265669806410,-0.5,-0.3125,0.25
1535265669822400,1,0.25,0.0625
1535265669844468,-0.25,0.625,0
1535265669866610,-0.5625,-1.1875,0.0625
1535265669882107,0.3125,0.0625,-0.3125
1535265669904671,0.6875,1.5,-0.1875
1535265669926346,0.125,-0.8125,-0.75
1535265669942266,0.125,-1,-1.5625
1535265669964330,-0.375,1.4375,-0.375
1535265669987889,-0.25,1.3125,-0.375
1535265670008944,0.125,-0.4375,-0.1875
1535265670024482,-0.1875,-0.9375,0.125
1535265670047686,-0.125,-0.3125,-0.25
1535265670062086,0.8125,0.6875,-0.0625
1535265670075622,0.0625,0.4375,0.5
1535265670098181,-0.125,-0.6875,0.75
1535265670121243,-0.1875,-0.4375,0.3125
1535265670135782,0.875,1.125,0.25
1535265670158343,0.1875,0.75,0.3125
1535265670181400,-0.375,-0.75,-0.4375
1535265670195437,-1,-1.125,0.375
1535265670218502,0.25,-0.1875,0.0625
1535265670242565,0.5625,0.6875,0
1535265670255699,0.1875,-0.25,0.125
1535265670278162,0.125,-0.1875,0.0625
1535265670301221,-1.0625,0.4375,-0.4375
1535265670323788,0.0625,0.25,-0.4375
1535265670338337,0.875,0,-0.0625
1535265670361420,0,-0.625,0.25
1535265670375417,-1.0625,-1.1875,-0.3125
1535265670398008,-1,-0.1875,0
1535265670421655,0.3125,1.5625,0.125
1535265670435631,1.375,0.625,-0.25
1535265670458298,0.125,-0.875,0.3125
1535265670481348,-0.6875,-0.9375,0.5
1535265670495795,-0.5625,0.375,0.8125
1535265670533492,0.0625,0.5625,0.375
1535265670550440,0.625,-0.4375,-0.25
1535265670564975,-0.0625,-0.5,0.1875
1535265670578045,-1.9375,9.8125,-1.3125
1535265670601102,0.1875,2,1.5
1535265670623662,0.375,-27.9375,-3.375
1535265670638201,1.25,-15.375,-0.875
1535265670661363,2,7.8125,-1.8125
1535265670683822,-0.25,5.75,-1.8125
1535265670698406,-2.1875,2.625,-1.75
1535265670721483,-1.8125,2.125,0.75
1535265670736019,1.375,-0.375,0.4375
1535265670758326,1.3125,-0.875,-0.3125
1535265670781391,0.8125,2.125,0.625
1535265670795925,-0.375,-0.8125,0.0625
1535265670818485,0,-3.625,0.5625
1535265670841111,-0.25,0.9375,0.1875
1535265670855582,-0.5,2.5,-0.5625
1535265670878205,-0.0625,-2.0625,-0.9375
1535265670900705,-0.25,-2.0625,-0.125
1535265670915777,-0.625,1.5625,0
1535265670938303,-0.25,0.875,0.3125
1535265670960862,0.5,-2.125,-0.25
1535265670975901,0.75,0.5,0.4375
1535265670997991,-1,2.25,0.1875
1535265671020651,0.1875,-0.5625,-0.0625
1535265671035856,0.0625,-1.8125,0.25
1535265671058159,0.4375,0.25,-0.3125
1535265671080680,-0.3125,0.875,0
1535265671095831,-0.125,-1.8125,-0.9375
1535265671118364,0.875,-2.8125,-1.3125
1535265671141008,-0.25,-1.25,-0.9375
1535265671156007,1.5625,-0.8125,-2.1875
1535265671178569,3.4375,-9.5,5.25
1535265671200623,20.625,1.75,-16.4375
1535265671223684,14.9375,6.5,1.5625
1535265671238223,-0.9375,8.3125,1.6875
1535265671260850,25.0625,15.8125,19.0625
1535265671283846,-16.3125,10.3125,30.3125
1535265671306434,-19.8125,-31.5625,41.0625
1535265671320559,53.5625,-57.4375,61.75
1535265671344043,5.1875,-78.0625,102.688
1535265671358230,19.6875,-127.313,135.5
1535265671380604,-60.1875,-147.313,68.5625
1535265671403810,-25.375,-261.188,142.438
1535265671418206,-64,-369.813,208.375
1535265671440767,10.875,-357.25,220.375
1535265671463917,125.375,-381.938,260.813
1535265671478396,-5.125,-410.938,495.625
1535265671500938,-396.688,-391,414.063
1535265671523998,-162.25,-142.313,310.188
1535265671538073,-302.938,-124.063,688.563
1535265671560646,-308.625,-136.313,516.813
1535265671583644,-377.375,-139.375,493.063
1535265671598182,-401.063,-135,452.813
1535265671620874,-449.375,-233.313,308.063
1535265671643802,-371.438,-274.313,156.438
1535265671658385,-237.188,-204.375,31.3125
1535265671680476,-52.8125,-75.75,-51.8125
1535265671703962,53.5,51.9375,-187.125
1535265671718104,124.875,124.75,-288.75
1535265671740562,122.25,90.875,-363.438
1535265671763726,124.188,91,-315.188
1535265671778165,28.5,182.375,-202.438
1535265671800768,-65.75,61.25,-77.25
1535265671823280,-102.125,69.6875,-118.313
1535265671838319,-121.875,54.125,-159.563
1535265671860879,-149.375,97.5625,-261.75
1535265671883440,-157.563,107.875,-277
1535265671898021,-97.5,77.125,-178.625
1535265671929125,-131.188,152.313,-127.625
1535265671952228,-187.5,225.313,-218.438
1535265671958248,-81.0625,133,-296.25
1535265671980743,62.625,-26,-216.438
1535265672003267,74.0625,-39.5625,-135.938
1535265672018423,94.25,20.125,-167.188
1535265672040858,147.563,-99.5625,-69.4375
1535265672063420,102.75,-46.375,-126.875
1535265672077958,217.438,-71.6875,-120.375
1535265672100518,138.688,-12.25,38.0625
1535265672123081,73.875,-114.563,27.5
1535265672138124,102.563,-48.25,-24.6875
1535265672160685,19.3125,-8.625,-65.4375
1535265672183339,-18.75,42.875,-57.6875
1535265672198284,-8.4375,57.625,-42.5625
1535265672220836,9.3125,29.1875,-33.3125
1535265672243398,25.25,24.375,-31.75
1535265672257937,43.25,4.9375,-13.8125
1535265672280498,24.75,-9.8125,-7.5625
1535265672303097,-102.875,-5.5,-300.313
1535265672318096,52,34.5625,-87.5625
1535265672340665,32.5625,-46.75,-50.6875
1535265672363217,-36.0625,0.75,-8.1875
1535265672378352,4.625,16.5625,-26.25
1535265672400822,49.25,73.8125,-22.25
1535265672423377,-18.6875,121.313,-1.1875
1535265672437965,-108.188,289.75,-43.5625
1535265672460690,-42.3125,-135.25,-312
1535265672483053,-28.4375,65.9375,11.5625
1535265672498076,-29.125,-31.9375,-35.6875
1535265672520798,-93.4375,-14.625,-16
1535265672543203,39.25,-5.75,3.25
1535265672558238,26.25,0.25,3.25
1535265672580794,-1.625,-1,-15.1875
1535265672603357,-16.875,9,10.375
1535265672617893,26.625,-0.3125,5
1535265672640452,2.4375,-3.4375,-14.0625
1535265672663016,-10.75,8.625,7.3125
1535265672679558,-2,5.375,5.5625
1535265672700612,4.0625,-10.0625,-11.5625
1535265672723173,-2.5625,3.125,1.5625
1535265672739718,-3.8125,7.9375,7.5
1535265672760779,1.3125,-5.9375,-3.125
1535265672784344,0.9375,-1.5,-5.125
1535265672799625,-0.5625,3.75,5.9375
1535265672820445,-4.375,2.625,0.4375
1535265672842999,2.875,-4.75,-5.1875
1535265672859679,3.1875,1.5,2.3125
1535265672880679,-3.0625,2.5,2.875
1535265672903334,-3.1875,-0.25,-5.1875
1535265672919784,2.4375,-0.1875,1
1535265672940835,1.125,0.0625,3.25
1535265672963435,2,-3.125,-1.8125
1535265672979446,-1.75,2,-1.125
1535265673000998,-0.75,2.375,2.875
1535265673023557,1.125,-1.5,-1.3125
1535265673039600,1.75,-1.9375,-2
1535265673062162,-1.5625,2.75,2
1535265673084719,-0.5,0.6875,0.4375
1535265673099761,1.4375,-2.75,-1.6875
1535265673120846,2,-0.1875,0.625
1535265673143378,-1.9375,1.625,1
1535265673159920,-0.9375,0.75,-0.9375
1535265673180473,0.625,-0.5,-0.125
1535265673203038,0.5,-0.125,0.125
1535265673225660,-0.75,-0.5625,-0.3125
1535265673240636,1,-0.125,0.25
1535265673263196,0.0625,1,0.4375
1535265673279737,-0.9375,1,0.3125
1535265673300798,1,-1.125,0.75
1535265673322986,1.0625,-0.8125,-0.8125
1535265673340946,-2.1875,0.8125,-0.375
1535265673362005,-0.5625,1.375,0.3125
1535265673383065,0.875,-1,0
1535265673399606,0.625,-0.6875,-0.5625
1535265673420660,-0.6875,0.125,0.125
1535265673443440,0.125,0.1875,0.1875
1535265673459764,-0.25,0.25,-0.375
1535265673480834,-0.375,0,0.0625
1535265673503389,0.25,0.1875,0.25
1535265673519424,-0.1875,-0.0625,-0.3125
1535265673540478,-0.125,0.125,0.25
1535265673563149,0.4375,-0.375,0.375
1535265673579582,0.6875,-0.875,-0.5
1535265673602142,-0.1875,0.0625,0.0625
1535265673623206,-0.625,1,0.5
1535265673639743,-0.375,0,-0.25
1535265673662305,0.5,-0.5,-0.25
1535265673683409,0.125,-0.3125,0.3125
1535265673699412,-0.0625,0.125,0.0625
1535265673721964,0.125,-0.3125,-0.3125
1535265673743422,0,0.0625,0
1535265673759563,-0.5625,0.4375,0.0625
1535265673782135,-0.1875,0.0625,-0.0625
1535265673803177,0.5625,-0.5,-0.0625
1535265673819750,-0.125,0,0.0625
1535265673848299,-0.3125,0.1875,0.0625
1535265673863383,0.1875,-0.25,0.0625
1535265673879386,0,0,-0.0625
1535265673901947,-0.5,0.25,-0.125
1535265673922997,0.0625,-0.1875,-0.125
1535265673939549,0.1875,-0.3125,-0.125
1535265673962157,-0.0625,0.0625,0.0625
1535265673983162,-0.125,-0.0625,0
1535265673999701,0,-0.1875,-0.125
1535265674022259,-0.125,0.1875,0
1535265674043313,-0.1875,0.1875,0.0625
1535265674059356,0,-0.25,-0.0625
1535265674082437,0.0625,-0.25,-0.0625
1535265674103475,-0.1875,0.1875,0.0625
1535265674119623,-0.1875,0.0625,0.0625
1535265674148105,0.0625,-0.3125,0.0625
1535265674171280,0.25,-0.25,0
1535265674179681,-0.125,0,-0.0625
1535265674202238,-0.25,0.3125,0.0625
1535265674223295,-0.1875,-0.0625,0
1535265674239377,0.25,-0.25,-0.1875
1535265674262145,-0.0625,0,-0.0625
1535265674282954,-0.3125,0.3125,0
1535265674299017,-0.125,-0.25,0
1535265674321566,0.25,-0.3125,-0.125
1535265674343722,-0.3125,0.25,0.0625
1535265674358758,-0.3125,0.3125,0.125
1535265674381221,0,-0.3125,0
1535265674403784,0.3125,-0.375,-0.125
1535265674426336,-0.1875,0.1875,0.0625
1535265674448947,-0.125,-0.0625,0.0625
1535265674463968,0,-0.1875,-0.0625
1535265674479088,-0.1875,0.1875,0.0625
1535265674501153,-0.125,0,0.0625
1535265674523626,0.375,-0.4375,0
1535265674538739,-0.4375,0.1875,0.0625
1535265674561300,-0.25,0.4375,0
1535265674583764,0.0625,-0.3125,-0.125
1535265674598794,0.3125,-0.375,-0.0625
1535265674621354,-0.375,0.4375,0.25
1535265674643919,-0.125,0.25,0.125
1535265674658987,0.4375,-0.75,-0.1875
1535265674681516,0,-0.125,-0.0625
1535265674703670,-0.625,0.625,0.0625
1535265674719119,0.0625,-0.25,-0.0625
1535265674741173,0.125,-0.1875,-0.1875
1535265674763780,-0.25,0,0.0625
1535265674780279,0.1875,0.0625,0.0625
1535265674801364,0,-0.3125,-0.125
1535265674823893,-0.1875,0.4375,0.0625
1535265674840439,-0.25,0.0625,0.0625
1535265674861495,0.3125,-0.125,-0.25
1535265674884054,-0.3125,-0.0625,0.0625
1535265674900096,0,0.125,0.0625
1535265674921378,0.25,-0.4375,-0.1875
1535265674943765,0.1875,-0.1875,0
1535265674960768,-0.25,0.4375,0.0625
1535265674981358,-0.25,0.375,0.125
1535265675005377,0.1875,-0.25,0.0625
1535265675020416,0,-0.25,-0.0625
1535265675041473,-0.125,-0.0625,0
1535265675064149,-0.25,0.1875,-0.0625
1535265675080076,-0.0625,-0.0625,0.0625
1535265675101129,0,-0.125,-0.0625
1535265675123797,0.0625,-0.1875,0.0625
1535265675140736,-0.25,0.1875,0.0625
1535265675161394,-0.25,0.125,0
1535265675183858,0.0625,-0.125,-0.0625
1535265675200397,0.125,-0.0625,-0.0625
1535265675221454,-0.1875,0.125,-0.375
1535265675244018,-0.25,0.125,0.0625
1535265675260593,0.125,0.125,0.1875
1535265675281108,0.125,-0.3125,-0.1875
1535265675303669,0.1875,-0.3125,-0.3125
1535265675320213,-0.3125,0.1875,0.0625
1535265675341267,-0.5,0.875,0.375
1535265675363834,0.375,-0.5,-0.0625
1535265675380437,0.75,-1.1875,-0.625
1535265675401534,-0.625,0.5625,0.125
1535265675424231,-1.125,1.3125,0.3125
1535265675440541,0.8125,-1.1875,-0.4375
1535265675461591,0.3125,-0.75,-0.125
1535265675484151,-0.625,0.9375,0.3125
1535265675499692,-0.125,0.0625,-0.125
1535265675521246,0.0625,-0.25,0
1535265675543808,0.0625,0,0.375
1535265675559848,-0.1875,-0.375,-0.3125
1535265675581405,0.625,-0.5625,-0.3125
1535265675603464,-0.8125,1,0.25
1535265675619739,-0.6875,0.4375,0.0625
1535265675641569,0.75,-1.125,-0.4375
1535265675663716,0,-0.0625,0.0625
1535265675679671,-0.875,0.9375,0.3125
1535265675702742,0.0625,-0.125,-0.1875
1535265675723829,0.5625,-1,-0.3125
1535265675746386,-0.0625,0.4375,0.0625
1535265675770411,-0.5625,0.4375,0.125
1535265675783517,0.1875,-0.1875,0.0625
1535265675799487,-0.125,0,-0.125
1535265675822549,0,-0.375,0
1535265675843607,0,0,0.1875
1535265675859653,-0.25,0.125,0.0625
1535265675882719,0,-0.0625,-0.0625
1535265675903767,0,-0.4375,-0.125
1535265675919309,0.125,0.0625,0.0625
1535265675942870,-0.4375,0.25,0.1875
1535265675963925,0.0625,-0.125,0
1535265675979763,0.0625,-0.125,-0.1875
1535265676002847,-0.125,0.0625,-0.0625
1535265676025144,-0.25,0.125,0.1875
1535265676039636,0.25,-0.25,0
1535265676062689,-0.0625,-0.0625,-0.25
1535265676083758,-0.3125,0.25,0
1535265676099787,-0.0625,-0.0625,0.3125
1535265676122851,0.1875,-0.25,-0.125
1535265676143905,0,-0.1875,-0.0625
1535265676159514,-0.5,0.1875,0.4375
1535265676182574,0.125,-0.125,0
1535265676203652,0.1875,-0.25,-0.375
1535265676219674,-0.4375,0.3125,0.0625
1535265676242797,-0.3125,0.3125,0.1875
1535265676263879,0.125,-0.3125,-0.25
1535265676279836,0.0625,-0.0625,0.125
1535265676302894,-0.3125,-0.0625,0.125
1535265676323954,0.1875,-0.5625,-0.125
1535265676339554,0.1875,0.125,0.0625
1535265676362552,-0.25,0.3125,0
1535265676391629,-0.125,0,-0.125
1535265676399652,-0.125,0,0.0625
1535265676422722,0,0.125,0.1875
1535265676443770,0.25,-0.5625,0
1535265676459396,0.3125,-0.375,-0.0625
1535265676482375,-0.3125,0.375,0
1535265676504112,-0.1875,0.25,0.0625
1535265676519971,0,-0.125,-0.125
1535265676542114,-0.0625,0,-0.125
1535265676564590,0,0.125,0.0625
1535265676579630,0.0625,-0.1875,0
1535265676602217,-0.0625,-0.125,0.1875
1535265676623778,0.0625,-0.0625,0.0625
1535265676647921,0.0625,-0.0625,-0.25
1535265676661928,-0.3125,0.375,0
1535265676684987,-0.1875,0.3125,0.0625
1535265676699563,0.3125,-0.4375,-0.125
1535265676722096,0.375,-0.5,-0.125
1535265676745149,-0.3125,0.25,0.125
1535265676759688,-0.25,0.3125,0.1875
1535265676782250,0.0625,-0.0625,-0.0625
1535265676805309,0.25,-0.25,-0.1875
1535265676819476,-0.3125,0.3125,0.0625
1535265676842000,-0.125,0.125,0.1875
1535265676865467,0.3125,-0.4375,-0.125
1535265676879565,0.125,-0.375,-0.0625
1535265676902456,-0.1875,0.1875,0.0625
1535265676925631,-0.125,0.3125,0.1875
1535265676947690,0,-0.0625,-0.0625
1535265676962228,0.125,-0.375,-0.0625
1535265676985304,0,-0.1875,-0.1875
1535265676999442,-0.0625,0,0.125
1535265677022194,0,0.1875,0.125
1535265677045128,0.0625,-0.25,-0.0625
1535265677059484,0.3125,-0.1875,0
1535265677082242,-0.25,0.125,0.0625
1535265677105316,-0.0625,0.25,0
1535265677126213,0,-0.125,0
1535265677142287,0,-0.25,-0.0625
1535265677165268,0.125,-0.1875,0.125
1535265677186324,0,0.1875,0.0625
1535265677202201,0,-0.0625,-0.0625
1535265677225482,0.0625,-0.1875,0
1535265677246546,-0.1875,0.25,0.1875
1535265677262080,0,0.125,0
1535265677285142,0,-0.3125,-0.0625
1535265677306196,0.0625,-0.125,0
1535265677322244,0,0.0625,0.125
1535265677345302,0.125,-0.0625,0
1535265677366425,0,-0.1875,-0.0625
1535265677381900,-0.1875,0.0625,0
1535265677404585,0.5,0,-0.0625
1535265677426024,-0.25,0.1875,0
1535265677442176,-0.25,0.0625,0.0625
1535265677464737,0.4375,-0.5,-0.0625
1535265677486180,0.0625,-0.0625,0
1535265677502311,0,0.1875,0.125
1535265677524783,-0.0625,-0.0625,0.0625
1535265677546468,0,0,0.0625
1535265677561934,0.125,0.125,0.0625
1535265677584448,0.125,0.0625,-0.125
1535265677608001,0.0625,0,0
1535265677622040,0,-0.3125,0
1535265677644632,0.1875,-0.3125,-0.0625
1535265677667859,0.3125,0,0.125
1535265677682254,-0.0625,0.25,0.1875
1535265677704784,-0.1875,0.0625,-0.0625
1535265677727678,0,0.0625,-0.0625
1535265677742180,0,0,0
1535265677764416,0,-0.375,-0.0625
1535265677787979,0.125,-0.1875,-0.0625
1535265677802020,0.4375,0.0625,0.1875
1535265677824600,0,-0.25,0
1535265677847671,0.3125,-0.1875,0.125
1535265677862199,-0.4375,0.5,0
1535265677884831,0,-0.0625,-0.25
1535265677907820,0,-0.375,-0.125
1535265677922363,-0.25,0.1875,-0.125
1535265677944707,0.1875,-0.0625,-0.0625
1535265677967985,0.5625,-0.3125,0.0625
1535265677982021,-0.375,0.1875,0.125
1535265678004578,-0.1875,0.125,0.125
1535265678033654,0.125,-0.375,-0.125
1535265678048696,-0.125,0,-0.1875
1535265678064738,-0.625,0.1875,0
1535265678087801,0.125,-0.1875,0
1535265678108856,-0.125,-0.375,-0.1875
1535265678124398,0.0625,-0.0625,0
1535265678147538,-0.125,0.125,0
1535265678169116,-0.3125,0.3125,0
1535265678184764,-0.3125,0.1875,0
1535265678207625,0.4375,-0.6875,-0.25
1535265678228949,-0.1875,0,-0.1875
1535265678244717,-0.5,0.25,0.125
1535265678267783,0.1875,-0.1875,-0.125
1535265678288879,0.1875,-0.375,-0.1875
1535265678311438,-0.375,0.375,0.0625
1535265678334004,-0.3125,0.1875,0
1535265678349041,-0.125,0,-0.1875
1535265678364584,0.1875,-0.375,-0.0625
1535265678387142,-0.125,-0.1875,-0.0625
1535265678408698,-0.0625,-0.0625,0.0625
1535265678424740,-0.3125,0.25,0
1535265678446801,0,-0.1875,-0.0625
1535265678468978,-0.1875,0,-0.0625
1535265678484399,-0.25,0.1875,0.0625
1535265678506960,-0.125,0,-0.0625
1535265678530020,0.125,-0.25,-0.0625
1535265678543604,-0.125,0,-0.125
1535265678558099,-0.0625,0,-0.0625
1535265678589698,-0.3125,0.125,-0.125
1535265678611803,-0.125,-0.125,-0.0625
1535265678618254,-0.125,-0.0625,-0.125
1535265678640820,-0.0625,-0.125,0
1535265678663877,-0.125,0,-0.125
1535265678677913,-0.0625,-0.1875,-0.0625
1535265678700976,-0.25,0.0625,-0.0625
1535265678723571,-0.25,0,0
1535265678738073,-0.125,-0.0625,-0.125
1535265678760736,0,-0.1875,-0.125
1535265678783732,-0.25,0.0625,-0.0625
1535265678798256,-0.125,-0.0625,-0.125
1535265678820792,-0.1875,0.0625,-0.0625
1535265678843864,-0.125,-0.0625,0
1535265678866414,0,-0.0625,-0.125
1535265678880450,-0.0625,-0.1875,-0.125
1535265678904018,-0.25,-0.0625,-0.0625
1535265678918050,0,0,0.0625
1535265678940611,-0.25,-0.125,-0.125
1535265678963677,0,-0.0625,0
1535265678978212,-0.125,-0.1875,-0.0625
1535265679000838,-0.125,0,-0.0625
1535265679024072,-0.25,0.1875,-0.125
1535265679038466,-0.125,-0.0625,-0.1875
1535265679060585,0,-0.0625,0
1535265679084051,-0.1875,0,0.0625
1535265679098090,0.0625,-0.0625,0
1535265679122150,0.0625,-0.125,-0.0625
1535265679143710,-0.1875,0.0625,-0.0625
1535265679166268,-0.0625,0,0.0625
1535265679180806,-0.0625,0,-0.0625
1535265679203876,-0.0625,-0.125,0
1535265679217948,0.0625,-0.0625,0
1535265679241126,0,-0.0625,-0.125
1535265679264034,-0.125,0.1875,-0.0625
1535265679278076,-0.0625,0,-0.0625
1535265679300667,0,-0.125,0.125
1535265679323698,0.0625,0,0.0625
1535265679338226,-0.0625,0,0.0625
1535265679360784,0.0625,-0.125,0
1535265679383982,-0.0625,0,0
1535265679399387,-0.0625,0,0.125
1535265679420442,0.1875,-0.25,-0.0625
1535265679444008,0.0625,-0.125,-0.0625
1535265679458550,-0.125,0.125,0
1535265679480820,0,-0.0625,0.0625
1535265679503243,0.125,-0.1875,-0.0625
1535265679518275,-0.0625,-0.125,0.0625
1535265679540833,0,-0.0625,0
1535265679563397,-0.0625,0,0.0625
1535265679577942,0,0,0
1535265679600714,0,-0.125,0
1535265679632077,-0.125,0.0625,0
1535265679638159,0,-0.125,0.0625
1535265679660753,-0.0625,-0.0625,-0.0625
1535265679683213,-0.125,-0.0625,0.0625
1535265679698285,0.25,-0.125,0.0625
1535265679720861,-0.1875,0.0625,0.0625
1535265679742953,-0.125,-0.125,-0.0625
1535265679757994,0.0625,-0.0625,0.0625
1535265679780518,-0.125,0.125,0.0625
1535265679803076,0,-0.25,0.0625
1535265679818432,0,-0.125,-0.0625
1535265679840701,-0.125,0,0
1535265679863272,-0.0625,-0.0625,-0.0625
1535265679878311,-0.1875,0,-0.0625
1535265679900864,0,-0.0625,0.0625
1535265679923420,0.0625,-0.1875,0
1535265679937990,-0.0625,-0.0625,-0.125
1535265679960542,-0.1875,0.0625,0.125
1535265679983095,0.125,0.0625,0
1535265680001144,-0.125,-0.0625,0
1535265680020693,0,0,0.0625
1535265680043255,-0.125,-0.25,-0.0625
1535265680057796,-0.125,0.125,0.125
1535265680080857,0,0.0625,0.125
1535265680103449,0,-0.25,-0.1875
1535265680118521,-0.125,-0.0625,0
1535265680140514,-0.0625,0.0625,0.125
1535265680163073,0.125,-0.3125,-0.125
1535265680178116,0,0,0
1535265680200676,-0.3125,0.0625,0.125
1535265680231355,0,-0.0625,-0.0625
1535265680239779,0.0625,0,0
1535265680260884,-0.1875,0,-0.0625
1535265680282898,-0.0625,-0.125,-0.0625
1535265680299438,0,-0.0625,0
1535265680320499,0.125,-0.0625,0.0625
1535265680343095,0,-0.0625,-0.0625
1535265680359597,-0.125,0.0625,0.125
1535265680380652,0.125,0,0.0625
1535265680403315,-0.0625,0,-0.1875
1535265680419807,-0.0625,0.1875,0
1535265680440825,0.0625,0,0.125
1535265680463375,0.3125,-0.5,-0.1875
1535265680479418,0.125,0,0
1535265680500477,-0.25,0.125,0.0625
1535265680531555,0.0625,0,0
1535265680539588,-0.125,0,0.0625
1535265680560810,0.125,-0.125,0
1535265680591214,-0.1875,-0.0625,-0.125
1535265680599738,-0.125,0.0625,0.0625
1535265680620793,-0.0625,0,0.0625
1535265680643369,0.1875,-0.3125,-0.0625
1535265680659397,-0.0625,0,-0.0625
1535265680680492,-0.125,0.125,0
1535265680703019,-0.25,0,0.0625
1535265680719555,0.0625,0.0625,0.125
1535265680740615,0,-0.25,-0.125
1535265680763175,-0.0625,-0.375,-0.3125
1535265680787364,-0.5,0.25,0
1535265680809038,0.25,-0.1875,0.125
1535265680823147,0,-0.125,-0.0625
1535265680839411,-0.25,0.125,0.0625
1535265680860437,-0.1875,0.1875,0.125
1535265680882993,-0.0625,0.0625,-0.0625
1535265680899544,-0.125,0,-0.1875
1535265680920602,-0.1875,-0.375,0
1535265680943150,-0.3125,0,-0.0625
1535265680959698,-0.0625,0.0625,0.125
1535265680980968,-0.25,0.1875,-0.125
1535265681003311,-0.375,0,-0.0625
1535265681019354,0.0625,0.0625,0.25
1535265681042209,0.0625,0,-0.0625
1535265681062967,-0.0625,-0.3125,-0.3125
1535265681079521,-0.125,-0.0625,-0.0625
1535265681109099,-0.125,0.125,-0.125
1535265681123140,0.125,-0.125,0
1535265681139685,-0.25,0.125,-0.0625
1535265681160986,-0.25,0.125,0.0625
1535265681183291,-0.125,0,0.125
1535265681199834,-0.0625,-0.0625,-0.0625
1535265681222395,-0.0625,-0.125,0.125
1535265681242947,0.125,-0.1875,-0.1875
1535265681259495,-0.125,-0.125,-0.1875
1535265681282051,0.0625,0,0.125
1535265681303170,0.125,-0.1875,0.0625
1535265681319653,-0.0625,-0.0625,-0.125
1535265681342215,-0.3125,0.1875,0.125
1535265681366280,0.125,0,0.0625
1535265681387336,-0.125,-0.25,-0.1875
1535265681402373,-0.1875,0.125,0
1535265681422931,-0.0625,-0.1875,0.0625
1535265681439531,0.25,-0.1875,-0.1875
1535265681462030,-0.25,0,0
1535265681483132,-0.125,0.0625,0.125
1535265681499755,-0.125,0.0625,0.125
1535265681522189,-0.125,0.0625,-0.125
1535265681543250,-0.1875,-0.125,0
1535265681559290,-0.3125,0.125,0
1535265681581932,0.1875,-0.25,-0.0625
1535265681603406,-0.125,0,-0.125
1535265681620952,-0.125,0,-0.125
1535265681642009,-0.1875,0.0625,0
1535265681664604,-0.0625,-0.0625,0
1535265681685662,-0.125,0.125,0
1535265681702206,-0.1875,0,0.125
1535265681723407,0.1875,-0.375,-0.125
1535265681745570,0.0625,-0.125,-0.125
1535265681762368,-0.25,0.4375,0.0625
1535265681783423,-0.125,-0.0625,-0.125
1535265681805482,0,-0.125,0
1535265681822026,0,0.125,0.1875
1535265681843083,0.0625,-0.125,0
1535265681865693,-0.0625,-0.1875,-0.1875
1535265681882185,-0.125,-0.0625,0
1535265681903242,0.125,-0.0625,-0.0625
1535265681925299,-0.0625,0.1875,-0.125
1535265681943520,-0.25,0.1875,0.0625
1535265681965908,0.0625,-0.3125,0
1535265681985572,0.375,-0.3125,0
1535265682002092,-0.25,0.25,0.0625
1535265682023154,0.0625,-0.25,0
1535265682045707,0.0625,-0.125,-0.0625
1535265682062245,-0.0625,0.3125,0
1535265682083302,0,0.0625,-0.125
1535265682105861,0,-0.125,0
1535265682121903,-0.0625,0.0625,0.0625
1535265682144465,0.0625,-0.125,0
1535265682165556,0.0625,-0.1875,0.0625
1535265682182063,-0.0625,0.25,0.125
1535265682204673,-0.125,0.125,-0.125
1535265682225689,0.125,-0.25,0
1535265682242223,-0.125,0.125,0
1535265682264784,-0.0625,0,0
1535265682285839,0.125,-0.125,0
1535265682302384,-0.125,0,0.0625
1535265682324558,0.1875,-0.1875,0
1535265682345566,-0.0625,-0.1875,-0.125
1535265682362048,-0.25,0.25,0
1535265682384604,0.0625,0.125,0.125
1535265682405780,0.25,-0.3125,-0.0625
1535265682422205,-0.0625,0.0625,-0.0625
1535265682452332,-0.125,-0.0625,0.0625
1535265682465952,0.1875,-0.25,-0.0625
1535265682481994,0,0.125,0.0625
1535265682504553,-0.0625,0,0.0625
1535265682525612,-0.0625,-0.1875,-0.0625
1535265682542153,-0.125,0.125,0
1535265682564210,0,-0.0625,0
1535265682585767,0.1875,-0.0625,-0.125
1535265682601809,0.0625,0,0.0625
1535265682624731,0.0625,-0.0625,0
1535265682645935,0,0,0
1535265682661980,0,0,0.0625
1535265682684530,-0.125,0,0
1535265682705631,0,-0.25,0
1535265682722137,-0.0625,0,0.125
1535265682744696,0.0625,0.0625,-0.0625
1535265682765746,-0.0625,0,0
1535265682781292,0,-0.0625,0
1535265682803850,-0.0625,-0.0625,0
1535265682826468,0,-0.0625,0
1535265682841498,0,0.0625,0.0625
1535265682864016,-0.0625,-0.0625,0.0625
1535265682886070,0.0625,-0.125,-0.0625
1535265682901157,-0.125,0.125,0
1535265682924441,-0.0625,0.125,0
1535265682946277,0.125,-0.125,-0.0625
1535265682961312,0.0625,0,0
1535265682983872,-0.1875,0,0
1535265683006432,0,-0.125,-0.0625
1535265683028997,-0.0625,-0.0625,0
1535265683043761,-0.0625,0.0625,-0.125
1535265683066594,0.0625,0,0.0625
1535265683081637,-0.0625,-0.0625,0.0625
1535265683103698,0.125,0,-0.0625
1535265683126252,-0.125,0.1875,0.125
1535265683141292,0.25,-0.125,0.125
1535265683163972,-0.0625,-0.125,-0.125
1535265683186410,0,-0.125,0.0625
1535265683201451,0.0625,-0.125,-0.0625
1535265683223508,0.0625,-0.125,-0.125
1535265683246069,0,0.5,0.125
1535265683262644,-0.25,0.125,0.0625
1535265683283692,0,-0.3125,-0.125
1535265683306337,0.1875,-0.0625,0.1875
1535265683322774,-0.0625,-0.0625,0
1535265683343828,0.0625,-0.125,0.0625
1535265683366391,0.125,0,0.25
1535265683382935,0.0625,-0.0625,-0.25
1535265683403990,-0.375,0.0625,-0.1875
1535265683426563,-0.25,0.25,0.125
1535265683442606,-0.0625,-0.0625,-0.0625
1535265683463700,0.3125,-0.3125,-0.1875
1535265683486209,-0.25,0.0625,0.125
1535265683502779,0,-0.0625,0.125
1535265683523945,0.3125,-0.1875,-0.1875
1535265683546448,-0.125,0.0625,0.0625
1535265683562931,-0.1875,0.0625,0
1535265683583970,0.125,-0.4375,-0.3125
1535265683608032,-0.125,0.25,0
1535265683622733,-0.0625,0.1875,0.3125
1535265683643631,0.1875,-0.5625,-0.125
1535265683666688,0,-0.1875,-0.125
1535265683682747,-0.3125,0.5625,0.1875
1535265683703910,-0.1875,0.125,0.125
1535265683726444,-0.1875,-0.4375,-0.125
1535265683742893,0.125,-0.3125,-0.0625
1535265683763948,-0.1875,-0.0625,-0.0625
1535265683786601,0,0,0
1535265683802827,-0.3125,0.0625,-0.25
1535265683823606,0,0.25,0.125
1535265683846238,-0.125,0.25,0.0625
1535265683862719,-0.4375,0.0625,-0.0625
1535265683883766,0.0625,-0.375,0.0625
1535265683906328,0.4375,-0.4375,-0.125
1535265683923022,-0.4375,0.1875,-0.3125
1535265683943935,-0.5,0.25,0.0625
1535265683966487,-0.125,0,0
1535265683982529,-0.125,0.25,0.0625
1535265684003587,0.0625,-0.3125,-0.125
1535265684026146,0.1875,-0.5,-0.125
1535265684042188,-0.4375,0.1875,0.0625
1535265684063855,-0.0625,0.1875,-0.125
1535265684086308,0.0625,0.0625,-0.1875
1535265684101845,-0.5,0.0625,-0.25
1535265684123908,0,-0.1875,-0.1875
1535265684146510,-0.125,0.625,0.5625
1535265684162507,0.25,-0.25,-0.125
1535265684185066,0.3125,-1,-0.5
1535265684206225,-0.375,0.4375,0.1875
1535265684222169,-0.4375,0.6875,0.1875
1535265684245230,0.0625,-0.25,-0.0625
1535265684266285,0.375,-0.5,-0.125
1535265684282331,-0.4375,0.0625,-0.3125
1535265684305394,-0.375,0.4375,0.125
1535265684326446,-0.0625,-0.125,0.125
1535265684341987,0.375,-0.5625,-0.25
1535265684365548,0,0,0
1535265684393621,-0.5,0.625,0.1875
1535265684405153,0,-0.125,0
1535265684425207,0.1875,-0.375,-0.25
1535265684446271,-0.0625,-0.0625,0
1535265684461802,-0.1875,0,0.0625
1535265684484927,-0.0625,0.0625,0
1535265684506420,0.1875,-0.0625,-0.125
1535265684521964,0,0,0.0625
1535265684545171,-0.125,0.125,-0.0625
1535265684566087,0,-0.0625,0
1535265684582125,-0.125,0.375,0.25
1535265684605187,0.25,-0.5,-0.25
1535265684627744,0.4375,-0.875,-0.625
1535265684642129,-0.4375,0.9375,0.375
1535265684665409,-0.6875,0.8125,0.625
1535265684686421,0.9375,-1.375,-0.625
1535265684701942,0.6875,-0.8125,-0.5
1535265684725004,-1,1.5625,0.5625
1535265684746065,-0.8125,0.6875,0.1875
1535265684762102,1.0625,-1.375,-0.25
1535265684785168,0.625,-0.6875,-0.25
1535265684806221,-0.5625,0.75,0.125
1535265684822261,-0.25,0.375,0.125
1535265684845324,0,0,0
1535265684866380,0.0625,-0.125,0
1535265684881922,0.4375,-0.4375,-0.0625
1535265684904982,-0.25,0.25,0
1535265684926060,-0.3125,0.25,0
1535265684942082,0.375,-0.5,-0.1875
1535265684972705,0.125,0,0.0625
1535265684993718,-0.5625,0.6875,0.1875
1535265685002241,0.0625,-0.25,-0.125
1535265685024427,0.375,-0.5,-0.125
1535265685046416,0,0,0.1875
1535265685062080,-0.125,0.125,0.0625
1535265685084470,-0.125,0.0625,-0.0625
1535265685106520,-0.125,0.25,0.0625
1535265685122085,0.125,0,0.0625
1535265685144620,-0.0625,-0.1875,0
1535265685167682,0.1875,-0.25,0.125
1535265685182221,0.125,0,0
1535265685204782,-0.25,0.25,0.0625
1535265685227842,-0.0625,0,0.125
1535265685248906,0.1875,-0.3125,0
1535265685272844,-0.0625,0.0625,0
1535265685287740,-0.0625,0.0625,0.0625
1535265685302039,0.0625,-0.125,-0.0625
1535265685324598,0,-0.125,0
1535265685347849,-0.1875,0.1875,0.1875
1535265685362234,0,-0.0625,0
1535265685384676,0.125,-0.25,-0.125
1535265685407819,0,0.0625,0
1535265685422166,-0.0625,-0.0625,-0.125
1535265685444544,-0.0625,-0.0625,0.0625
1535265685467734,0,-0.0625,0.0625
1535265685482107,0.0625,-0.0625,-0.1875
1535265685504578,-0.125,0.0625,0.0625
1535265685527639,-0.1875,0.3125,0.125
1535265685550278,-0.125,-0.0625,0.0625
1535265685564775,0.4375,-0.5625,0
1535265685587798,0.0625,0.0625,-0.125
1535265685602341,-0.1875,0.3125,-0.0625
1535265685624399,0.0625,-0.0625,-0.0625
1535265685647459,-0.125,0.0625,0.0625
1535265685669055,0.0625,0,0.125
1535265685684601,0.0625,-0.25,0
1535265685707786,-0.25,0.125,0
1535265685728754,0.3125,-0.125,0
1535265685744764,0.1875,-0.3125,-0.125
1535265685767824,-0.5,0.5,0.1875
1535265685788883,0,-0.125,0
1535265685804618,0.3125,-0.5,-0.25
1535265685828486,-0.0625,0.4375,0.3125
1535265685848536,0,0.0625,-0.0625
1535265685864584,-0.1875,-0.375,-0.4375
1535265685887644,-0.125,0.1875,0.125
1535265685908785,-0.3125,0.4375,-0.125
1535265685924324,0.1875,-0.1875,-0.0625
1535265685946886,0,-0.1875,0.1875
1535265685968997,0.0625,0,0
1535265685984712,0.0625,-0.0625,0
1535265686007057,0.0625,0,0.0625
1535265686029109,-0.4375,0.125,0
1535265686044648,0.3125,-0.1875,0.125
1535265686067205,-0.1875,-0.125,-0.125
1535265686088803,-0.0625,0.1875,0
1535265686104806,0.0625,0,0.125
1535265686126864,0.1875,-0.1875,-0.0625
1535265686150004,-0.25,0,0.1875
1535265686164463,0.3125,-0.125,0
1535265686187024,-0.0625,-0.1875,-0.1875
1535265686210084,-0.0625,0.0625,0
1535265686224622,-0.0625,0.125,0.125
1535265686247184,0.25,-0.3125,-0.125
1535265686270249,0.0625,-0.0625,0
1535265686284282,-0.0625,0.0625,0.0625
1535265686307092,0.0625,0.0625,-0.0625
1535265686329902,0.0625,-0.0625,-0.125
1535265686344556,-0.0625,0,-0.1875
1535265686367066,0.1875,-0.125,0
1535265686390134,0,0,-0.0625
1535265686404667,0,-0.125,-0.0625
1535265686427231,0.0625,-0.3125,-0.0625
1535265686450370,0.0625,0.25,0
1535265686464406,-0.375,0.3125,-0.125
1535265686486965,-0.0625,0,-0.25
1535265686510529,0.125,-0.25,0.125
1535265686524566,0.1875,-0.1875,-0.0625
1535265686547127,0,-0.1875,-0.1875
1535265686570187,0,0,-0.125
1535265686584728,-0.125,0.125,0
1535265686607294,-0.0625,0.25,0.0625
1535265686636367,-0.0625,-0.0625,-0.0625
1535265686658923,0.0625,-0.125,-0.0625
1535265686666959,-0.1875,0.0625,-0.0625
1535265686690010,0.1875,-0.1875,-0.1875
1535265686711563,-0.125,-0.0625,-0.1875
1535265686727106,-0.125,0.125,0
1535265686750165,0,0,-0.0625
1535265686771219,0.125,0.0625,-0.0625
1535265686787203,-0.25,0.1875,-0.0625
1535265686810331,0.0625,-0.1875,-0.125
1535265686831490,0.0625,0,0
1535265686847425,-0.0625,0,-0.0625
1535265686869790,0,-0.125,-0.25
1535265686892546,-0.1875,0.125,-0.0625
1535265686913645,-0.1875,0.125,-0.125
1535265686936207,0.0625,0,0
1535265686951255,-0.1875,0.125,0
1535265686966786,0,0,0
1535265686989384,0,-0.125,-0.125
1535265687011452,0,0,-0.125
1535265687026449,-0.125,0.0625,-0.1875
1535265687040658,-0.1875,0.1875,0
1535265687063148,-0.1875,0.0625,-0.0625
1535265687086606,0.125,-0.1875,-0.0625
1535265687100646,0.0625,-0.0625,-0.0625
1535265687123204,-0.125,0.0625,-0.125
1535265687146275,0.0625,-0.125,-0.0625
1535265687160802,0,0.0625,-0.0625
1535265687182981,-0.125,0.125,-0.0625
1535265687205925,0,-0.125,-0.0625
1535265687220659,0.0625,0,-0.125
1535265687243036,-0.125,0.0625,0
1535265687266590,0,-0.0625,-0.125
1535265687280632,0,0,0
1535265687303290,0.1875,0,0
1535265687326244,0.0625,-0.0625,-0.25
1535265687340783,-0.1875,0.25,-0.0625
1535265687363341,-0.125,-0.125,-0.125
1535265687388909,0.1875,-0.25,-0.125
1535265687400452,-0.1875,0.0625,-0.0625
1535265687423001,-0.125,0.0625,-0.0625
1535265687446131,0,-0.125,-0.125
1535265687460602,0.0625,0.0625,0
1535265687483162,-0.0625,0.125,0
1535265687506323,0,-0.125,-0.0625
1535265687520807,0.0625,-0.1875,0
1535265687543323,-0.0625,0,-0.125
1535265687566488,0.125,-0.0625,-0.125
1535265687580421,-0.0625,0.1875,0
1535265687602994,0.125,0.0625,-0.0625
1535265687626037,0,-0.0625,-0.0625
1535265687640579,-0.1875,0.0625,0
1535265687663151,0,-0.125,-0.0625
1535265687686384,0.1875,-0.1875,0.0625
1535265687700739,-0.0625,0.0625,-0.0625
1535265687723341,0.0625,-0.1875,-0.1875
1535265687746888,-0.1875,0.125,-0.0625
1535265687768921,-0.0625,0.125,0
1535265687783468,0.1875,-0.25,-0.1875
1535265687806520,-0.125,-0.0625,-0.0625
1535265687820556,-0.0625,0.0625,-0.0625
1535265687843368,0.0625,0,-0.0625
1535265687866178,0.125,-0.1875,-0.0625
1535265687880717,-0.1875,0.125,-0.1875
1535265687903322,-0.125,-0.0625,-0.25
1535265687926456,-0.0625,0.125,-0.125
1535265687940523,-0.1875,0.0625,0.1875
1535265687963438,0.375,-0.5,0
1535265687986499,0.1875,-0.25,-0.25
1535265688002042,-0.3125,0.5625,-0.0625
1535265688024604,-0.1875,0.4375,-0.0625
1535265688047248,-0.125,-0.125,-0.1875
1535265688060784,0.1875,-0.5,-0.0625
1535265688083403,0.1875,-0.4375,-0.125
1535265688105401,0.125,-0.0625,0
1535265688120443,-0.125,0.25,0
1535265688143010,-0.25,0.1875,-0.0625
1535265688165569,-0.0625,0.1875,-0.0625
1535265688180865,-0.125,0.1875,-0.0625
1535265688203346,0.1875,-0.375,-0.125
1535265688225775,0.25,-0.4375,-0.0625
1535265688240774,-0.0625,-0.1875,-0.125
1535265688263322,0.0625,0,-0.0625
1535265688285903,-0.375,0.4375,0
1535265688303556,-0.0625,0.1875,0
1535265688322983,0.0625,-0.125,-0.125
1535265688345540,0.0625,-0.125,-0.0625
1535265688360580,0.125,-0.3125,0
1535265688383140,0.1875,-0.125,-0.25
1535265688405700,0,-0.25,-0.1875
1535265688420239,0,0.1875,0
1535265688442799,-0.0625,0,0.0625
1535265688465362,0.0625,0.125,-0.0625
1535265688480901,-0.3125,0,-0.0625
1535265688503038,0.1875,-0.1875,0
1535265688525523,0,-0.125,-0.125
1535265688540565,0.125,0,-0.125
1535265688563129,0.0625,-0.25,-0.25
1535265688585775,-0.0625,-0.1875,-0.3125
1535265688601817,-0.25,0.5,0.1875
1535265688622872,-0.125,0.1875,-0.0625
1535265688645541,0.1875,-0.3125,-0.125
1535265688660475,0,0.0625,0.1875
1535265688691156,-0.125,-0.25,-0.25
1535265688705776,0.1875,-0.375,-0.0625
1535265688720669,-0.125,0.1875,-0.0625
1535265688743196,-0.125,0.0625,-0.1875
1535265688765939,-0.0625,0.25,0.0625
1535265688781796,-0.125,0.0625,0
1535265688802851,0.125,-0.25,-0.1875
1535265688825520,0.25,-0.1875,0
1535265688841958,-0.1875,0,-0.125
1535265688863060,-0.1875,0.0625,-0.125
1535265688885678,0.0625,0.0625,-0.0625
1535265688902115,-0.125,0.0625,-0.1875
1535265688923171,-0.1875,-0.1875,-0.1875
1535265688945841,0.1875,-0.1875,0
1535265688961776,-0.3125,0.0625,-0.0625
1535265688983336,0.1875,-0.0625,-0.125
1535265689005510,-0.0625,-0.0625,-0.125
1535265689021963,-0.4375,0.25,-0.1875
1535265689043219,0.0625,-0.125,-0.1875
1535265689065743,-0.125,0.125,-0.0625
1535265689082211,0.1875,-0.125,-0.0625
1535265689103267,0.0625,-0.125,-0.125
1535265689125780,-0.625,0.1875,-0.25
1535265689142330,-0.0625,0,0.0625
1535265689163317,0.1875,-0.0625,0
1535265689185472,-0.125,0.125,-0.1875
1535265689202069,-0.0625,-0.125,-0.0625
1535265689222969,0.1875,-0.0625,0
1535265689245528,-0.125,0.0625,-0.0625
1535265689262073,0.0625,-0.0625,0
1535265689283168,-0.0625,-0.125,-0.0625
1535265689305693,0,0,-0.0625
1535265689322232,0,0,-0.0625
1535265689342787,0.1875,-0.25,-0.0625
1535265689365396,0.0625,0,0
1535265689381967,-0.125,-0.0625,-0.0625
1535265689410969,0.125,-0.0625,-0.0625
1535265689433528,-0.0625,0.0625,-0.0625
1535265689442052,0.125,-0.1875,0
1535265689463109,0,-0.0625,0
1535265689485677,-0.0625,0,-0.125
1535265689502212,-0.125,-0.0625,0.0625
1535265689523270,-0.0625,0.125,0.0625
1535265689545837,0.25,-0.125,0.125
1535265689561872,0,0.0625,0
1535265689583440,-0.25,-0.0625,-0.0625
1535265689605493,0.1875,-0.25,0
1535265689622032,0.0625,0.0625,0.0625
1535265689646095,0,0.125,0.0625
1535265689667151,-0.0625,-0.1875,0
1535265689688248,-0.125,0,0
1535265689704331,0.25,0.0625,0.125
1535265689725380,0.0625,-0.0625,0
1535265689741924,0,-0.125,0
1535265689764602,-0.0625,0.0625,0.0625
1535265689785539,0.1875,0,0
1535265689803587,0.1875,-0.0625,-0.0625
1535265689824742,-0.0625,0,0.125
1535265689845702,0,0,0
1535265689862280,0,-0.125,0
1535265689884313,-0.0625,0.0625,0.0625
1535265689905361,0.25,-0.0625,0.0625
1535265689922145,0.0625,0,-0.125
1535265689946112,-0.1875,0.125,0
1535265689968644,0.125,-0.125,0.0625
1535265689989744,0.125,-0.125,-0.0625
1535265690004736,-0.1875,0.125,0.0625
1535265690025829,0,-0.1875,0
1535265690041828,0,-0.1875,0
1535265690064889,0.0625,0.0625,0.0625
1535265690085497,-0.125,0.125,-0.125
1535265690104995,0.0625,-0.25,0
1535265690124553,0,-0.0625,-0.0625
1535265690145654,0,0,-0.0625
1535265690162146,0.125,-0.0625,0
1535265690184387,-0.0625,0.0625,0.0625
1535265690205395,0.0625,-0.0625,0.0625
1535265690221944,0.25,-0.1875,-0.0625
1535265690244499,-0.1875,0.1875,-0.0625
1535265690267061,0.0625,-0.0625,0
1535265690282101,0.3125,-0.125,0.0625
1535265690304660,0,0,0.0625
1535265690325715,0.0625,-0.0625,-0.0625
1535265690341761,0,0.0625,0
1535265690364317,0.0625,-0.0625,0.0625
1535265690385418,0.0625,-0.0625,-0.0625
1535265690407984,-0.1875,-0.0625,0
1535265690424480,-0.0625,-0.0625,0
1535265690453563,0.0625,-0.0625,-0.0625
1535265690468095,0,0,0
1535265690484640,-0.0625,-0.0625,-0.0625
1535265690505701,0.0625,-0.0625,-0.0625
1535265690528256,0.0625,0.0625,0.0625
1535265690545920,-0.1875,0.125,0.0625
1535265690565473,0.125,-0.125,0
1535265690588039,0,-0.0625,0
1535265690604576,0.125,-0.0625,0
1535265690625632,0.0625,0.0625,0
1535265690656215,-0.0625,0,-0.0625
1535265690664737,0.0625,-0.125,0
1535265690686794,0.1875,0,0.0625
1535265690708358,-0.0625,0.0625,0.0625
1535265690724481,0.125,-0.0625,-0.0625
1535265690746955,0.0625,-0.3125,-0.125
1535265690768063,0,0.125,0.0625
1535265690784604,0,-0.0625,0
1535265690807115,0.25,-0.3125,-0.1875
1535265690828171,-0.125,0,0.125
1535265690844280,-0.0625,0.0625,0.0625
1535265690866890,0.0625,-0.1875,0
1535265690887871,-0.0625,0.125,0.0625
1535265690904373,0,-0.125,-0.125
1535265690926933,0.1875,-0.125,-0.0625
1535265690948039,0.0625,0.0625,0.125
1535265690964532,0.125,-0.1875,-0.0625
1535265690987182,0,-0.0625,0.0625
1535265691008155,-0.0625,0.1875,-0.0625
1535265691024695,-0.125,0.0625,0
1535265691047254,0,0,0
1535265691068311,-0.0625,-0.125,0
1535265691084353,0.1875,-0.25,-0.0625
1535265691106913,0.0625,0.0625,0
1535265691127990,0.125,0.0625,-0.0625
1535265691144531,0.0625,-0.0625,-0.0625
1535265691167089,0.0625,0,-0.0625
1535265691188279,0.0625,0.0625,0.0625
1535265691204693,0.1875,-0.0625,-0.0625
1535265691227250,0,0,0
1535265691248310,0,0,0
1535265691264853,0,-0.125,-0.0625
1535265691286410,0.125,-0.0625,0
1535265691308970,-0.1875,0.125,0
1535265691323574,0.1875,-0.125,0
1535265691353790,0,0,0.125
1535265691376801,-0.125,0.125,0.0625
1535265691383821,0,-0.1875,-0.0625
1535265691406362,0.125,-0.1875,-0.0625
1535265691428928,0,0,0.0625
1535265691443975,0.125,-0.1875,0
1535265691466531,-0.1875,0.0625,0
1535265691488582,0,0,0.0625
1535265691503681,0.125,0.125,0.0625
1535265691526198,-0.0625,-0.0625,-0.0625
1535265691548702,-0.0625,-0.1875,-0.0625
1535265691565374,0,-0.0625,0.0625
1535265691586373,0.125,0,-0.0625
1535265691608864,-0.125,-0.0625,-0.0625
1535265691625048,0,0,0.0625
1535265691653484,0.125,0,0
1535265691668621,0.0625,-0.0625,0
1535265691683668,0.0625,-0.0625,0
1535265691706226,-0.1875,-0.0625,-0.0625
1535265691728681,0.1875,-0.125,0.0625
1535265691743729,0.0625,0,0.0625
1535265691766400,-0.0625,-0.0625,-0.0625
1535265691788842,0,-0.0625,-0.0625
1535265691805432,0,0.0625,-0.0625
1535265691826444,-0.1875,0,0.0625
1535265691849048,0.125,-0.125,0
1535265691865053,-0.125,0,-0.0625
1535265691886113,0.0625,-0.0625,0.0625
1535265691910166,0.125,-0.1875,0
1535265691931683,-0.125,0.0625,-0.0625
1535265691946260,-0.0625,0.0625,0.125
1535265691969324,0.125,-0.125,0
1535265691985396,0,-0.0625,-0.0625
1535265692005920,-0.0625,0.0625,-0.0625
1535265692028980,0.125,-0.25,0
1535265692045525,0.0625,-0.0625,0.0625
1535265692066122,0.25,-0.0625,-0.0625
1535265692088749,-0.0625,0.125,0
1535265692105334,-0.125,0,0.0625
1535265692126238,0,-0.125,-0.0625
1535265692148801,-0.0625,-0.125,0
1535265692165517,-0.1875,0.0625,0.0625
1535265692186398,0.125,-0.25,-0.0625
1535265692210072,0.0625,-0.1875,0
1535265692225508,-0.0625,0.1875,0.0625
1535265692246559,0,-0.1875,-0.0625
1535265692268635,0.0625,0,-0.0625
1535265692285394,-0.4375,0.375,0.0625
1535265692306613,0.1875,-0.3125,0.0625
1535265692328782,-0.0625,-0.3125,-0.1875
1535265692345323,-0.3125,0.375,0.0625
1535265692366381,0.125,-0.125,-0.0625
1535265692388937,0.1875,-0.375,-0.375
1535265692405057,-0.1875,0.3125,0.125
1535265692426037,-0.125,-0.0625,0.0625
1535265692448596,0.25,-0.375,-0.0625
1535265692465143,0,0.125,0.1875
1535265692487700,-0.125,0.0625,0.0625
1535265692508794,-0.125,-0.125,-0.125
1535265692525300,-0.0625,0.0625,0
1535265692546438,-0.0625,0,-0.0625
1535265692568917,0.1875,-0.3125,-0.25
1535265692584498,-0.3125,0.125,-0.0625
1535265692606519,0,-0.125,0.1875
1535265692628576,0,-0.125,0
1535265692644671,-0.3125,0.4375,0.0625
1535265692666278,-0.5625,0.25,0
1535265692688834,0.125,-0.25,-0.25
1535265692704780,0.0625,-0.125,-0.125
1535265692726403,0,0,-0.125
1535265692748965,-0.0625,-0.25,-0.25
1535265692765030,-0.125,0.125,0.125
1535265692788068,-0.5,0.3125,0
1535265692808623,-0.125,0,0
1535265692824668,0.1875,-0.125,0.0625
1535265692847738,-0.25,0,-0.25
1535265692868852,-0.5625,-0.0625,-0.1875
1535265692884737,0.375,-0.5,-0.0625
1535265692907494,-0.25,0.25,-0.1875
1535265692928975,-0.4375,0.5,0.125
1535265692944483,0.1875,-0.125,0.0625
1535265692967906,0.0625,-0.3125,0
1535265692988600,-0.25,0.125,-0.0625
1535265693004703,0.0625,0,-0.0625
1535265693027705,-0.25,-0.0625,-0.0625
1535265693048865,-0.25,0,-0.1875
1535265693064455,0.1875,-0.5,-0.0625
1535265693087522,0.0625,0.125,0.125
1535265693108760,-0.5,0.5625,0.0625
1535265693124622,0.1875,-0.1875,-0.125
1535265693147815,0.125,-0.3125,-0.0625
1535265693168738,-0.125,0.0625,0
1535265693184276,-0.0625,-0.0625,-0.125
1535265693207836,-0.0625,-0.25,-0.125
1535265693229522,0,0,0
1535265693244525,-0.125,0.0625,0
1535265693267492,-0.1875,0.25,0.0625
1535265693296135,-0.0625,-0.0625,0.0625
1535265693304713,-0.125,-0.25,-0.1875
1535265693327661,0,-0.125,0
1535265693348835,-0.125,0.125,0
1535265693364758,0.1875,-0.1875,-0.0625
1535265693387824,-0.25,0.125,-0.0625
1535265693408933,-0.25,0.125,0
1535265693424462,0,-0.1875,0.0625
1535265693447474,0,0,0
1535265693469095,-0.0625,-0.0625,0
1535265693484572,-0.0625,-0.125,-0.0625
1535265693507134,-0.125,0.125,-0.125
1535265693528692,0.125,-0.25,-0.0625
1535265693544230,-0.0625,0,0
1535265693575326,-0.3125,0.25,0.0625
1535265693596529,0.1875,-0.3125,0
1535265693604392,0.0625,0,0.0625
1535265693626950,-0.375,0.25,0.0625
1535265693649008,0.1875,-0.1875,-0.1875
1535265693664601,-0.125,0.0625,-0.125
1535265693687163,-0.0625,0.0625,-0.0625
1535265693710282,0.0625,-0.375,0
1535265693724261,0.0625,-0.125,0.125
1535265693746821,0,0.0625,0
1535265693770387,-0.0625,0,0
1535265693784658,-0.25,0.3125,0.125
1535265693807075,0.125,0,0
1535265693830041,0.125,-0.4375,-0.1875
1535265693844624,-0.1875,-0.0625,0.0625
1535265693875204,0,-0.0625,0.0625
1535265693896265,0.25,-0.125,0
1535265693904743,-0.1875,0.125,-0.0625
1535265693927303,-0.625,0.125,-0.0625
1535265693951007,0,-0.125,0.0625
1535265693964404,0.125,0.0625,0.0625
1535265693986961,0.0625,-0.25,-0.3125
1535265694010026,-0.125,-0.3125,-0.1875
1535265694024562,-0.3125,0.3125,0.0625
1535265694047121,0,0,0.0625
1535265694070182,0.25,-0.25,-0.125
1535265694084267,0,-0.125,0
1535265694107413,-0.375,0.125,0
1535265694130842,-0.0625,0.125,0.0625
1535265694152825,0.1875,-0.3125,-0.0625
1535265694167235,0,-0.3125,-0.125
1535265694190001,-0.125,0.25,0.0625
1535265694211055,-0.0625,0,-0.1875
1535265694227230,0,0,-0.0625
1535265694250159,-0.25,0.125,0.0625
1535265694271216,-0.0625,-0.25,0
1535265694286756,0.0625,-0.1875,0.0625
1535265694310325,0,0.0625,0
1535265694331378,0,-0.3125,-0.25
1535265694346925,-0.0625,0,-0.0625
1535265694370486,-0.25,0.375,0.0625
1535265694391573,0.0625,-0.0625,0
1535265694407078,0.125,-0.375,0.0625
1535265694429638,-0.1875,-0.0625,0
1535265694452699,0.1875,0,0.0625
1535265694466735,-0.0625,0.125,0
1535265694489296,-0.1875,0.0625,-0.125
1535265694511406,0.0625,-0.25,-0.0625
1535265694526904,-0.0625,0,0
1535265694549468,0.0625,0,0.125
1535265694571522,0,-0.0625,0
1535265694587071,-0.0625,-0.1875,-0.125
1535265694609615,-0.375,0.3125,0.125
1535265694632678,0.0625,0.0625,0.0625
1535265694646790,0,-0.125,-0.125
1535265694669456,-0.125,-0.0625,0.0625
1535265694692837,0,-0.3125,-0.0625
1535265694707376,0.0625,-0.125,0
1535265694729440,-0.25,0.0625,0.0625
1535265694752751,-0.25,0.125,-0.0625
1535265694767038,0.125,-0.125,0.0625
1535265694789604,0.125,0,-0.0625
1535265694813160,-0.375,0,0
1535265694827199,-0.0625,0,0
1535265694849757,0.125,-0.4375,-0.125
1535265694872824,-0.1875,0.0625,0
1535265694887451,-0.25,0.125,0.0625
1535265694909418,0,-0.1875,0
1535265694932823,-0.1875,0.1875,0.0625
1535265694947050,-0.25,0.0625,0.0625
1535265694969724,0.125,-0.375,-0.0625
1535265694992683,0.125,-0.125,0
1535265695007219,0.0625,0.0625,0.0625
1535265695029301,0.0625,-0.0625,0
1535265695052833,-0.1875,0.0625,0
1535265695073886,-0.125,0.125,0.0625
1535265695089470,0,-0.125,0.0625
1535265695112493,0.125,0,0
1535265695133547,-0.125,-0.125,-0.125
1535265695149624,-0.0625,-0.0625,-0.0625
1535265695172653,0,0,0.0625
1535265695193750,0.0625,0.125,0
1535265695209256,-0.3125,0.125,0
1535265695240332,0.125,-0.25,0
1535265695253963,0.125,-0.25,0.0625
1535265695269482,-0.125,0.0625,0
1535265695292552,-0.125,-0.0625,-0.0625
1535265695313616,0,-0.125,-0.0625
1535265695329770,-0.0625,0,-0.0625
1535265695352712,-0.0625,0,0
1535265695373769,-0.0625,0,0
1535265695389308,-0.25,0.0625,0
1535265695411869,0.0625,-0.0625,0
1535265695433706,0,-0.1875,-0.0625
1535265695449723,-0.25,0.125,0
1535265695472038,0.0625,-0.1875,0
1535265695494212,0.125,-0.125,-0.0625
1535265695517889,-0.25,0.125,-0.0625
1535265695540289,-0.1875,-0.125,-0.125
1535265695545838,-0.125,-0.0625,0
1535265695568896,0.125,0,0.0625
1535265695583364,-0.0625,0,-0.125
1535265695605388,-0.25,0.0625,-0.125
1535265695628946,-0.0625,-0.0625,-0.0625
1535265695642991,-0.1875,0.1875,0
1535265695665549,-0.0625,0,0
1535265695688605,0.0625,-0.3125,0
1535265695703148,-0.25,0.1875,0
1535265695725707,-0.0625,0.1875,0.0625
1535265695748772,0.0625,-0.0625,-0.1875
1535265695763349,-0.25,0.0625,0
1535265695794386,-0.1875,0,0
1535265695817065,0.0625,-0.1875,-0.125
1535265695823079,-0.0625,0.125,0
1535265695845601,0,-0.3125,0
1535265695868583,0,-0.1875,-0.0625
1535265695883122,-0.25,0.375,0.0625
1535265695905680,0,0.0625,0
1535265695928742,0,-0.0625,-0.125
1535265695942779,0,0.0625,-0.0625
1535265695965341,-0.125,-0.125,-0.0625
1535265695988988,0,-0.125,0
1535265696002939,-0.1875,0,0
1535265696025608,-0.1875,0.0625,-0.0625
1535265696048594,-0.1875,0.125,0
1535265696063103,-0.1875,0,0
1535265696085661,0.1875,-0.1875,0
1535265696108721,-0.1875,0.0625,-0.0625
1535265696123260,0,-0.125,-0.0625
1535265696145822,0,-0.0625,-0.0625
1535265696168881,-0.1875,0.0625,0
1535265696182921,-0.125,0.125,0
1535265696205482,-0.0625,-0.0625,0
1535265696229054,0.0625,-0.0625,0
1535265696243174,-0.125,0,0
1535265696265757,-0.25,0,0
1535265696288886,0.0625,-0.1875,0
1535265696303380,0.125,0.25,0
1535265696325938,0,0,-0.0625
1535265696350501,-0.0625,-0.375,-0.125
1535265696371054,0,0.0625,0.125
1535265696385593,0.125,0.0625,0.125
1535265696408653,0.1875,-0.25,-0.25
1535265696423190,-0.25,0.1875,0
1535265696445753,-0.25,0.3125,0.0625
1535265696468934,0.1875,-0.25,-0.125
1535265696483353,0.0625,-0.3125,-0.0625
1535265696505927,-0.25,0.25,0
1535265696528084,-0.1875,0.0625,0.0625
1535265696543164,0,0,0
1535265696565569,-0.0625,0,-0.0625
1535265696588130,-0.0625,-0.0625,0
1535265696603172,-0.0625,0.0625,0
1535265696627269,0,-0.3125,-0.0625
1535265696649293,0.125,-0.1875,-0.0625
1535265696663365,-0.3125,0.375,0
1535265696685393,-0.125,0.125,0
1535265696708492,0.1875,-0.1875,-0.0625
1535265696723000,-0.25,0.125,-0.125
1535265696745552,0,-0.3125,-0.0625
1535265696768116,0.0625,-0.125,-0.0625
1535265696783151,-0.0625,0.125,0
1535265696805709,0.0625,-0.0625,-0.0625
1535265696828270,-0.1875,0.125,-0.0625
1535265696842813,0,0.125,0
1535265696865367,0.0625,-0.0625,0
1535265696887971,-0.125,-0.0625,-0.125
1535265696905978,-0.125,-0.25,-0.0625
1535265696927041,-0.125,0.125,0.0625
1535265696948092,-0.25,0.125,-0.0625
1535265696963133,-0.1875,0,-0.1875
1535265696985687,-0.1875,0.125,-0.0625
1535265697008249,0,0.0625,-0.0625
1535265697022790,-0.0625,0,0
1535265697045347,-0.1875,-0.125,0
1535265697068409,-0.0625,-0.125,0
1535265697083451,-0.1875,0,-0.0625
1535265697105511,-0.3125,0,-0.125
1535265697128070,-0.25,0.125,0
1535265697143111,0,-0.125,0
1535265697165987,-0.25,0.0625,-0.125
1535265697188233,0.0625,-0.1875,-0.0625
1535265697203270,0.1875,0,0.0625
1535265697225327,-0.25,0.25,-0.125
1535265697248388,-0.25,-0.1875,-0.1875
1535265697271493,0.125,-0.0625,0
1535265697285591,-0.25,0.375,0
1535265697308046,0.125,-0.375,-0.25
1535265697324601,-0.0625,-0.125,0
1535265697345654,-0.125,0.125,0.0625
1535265697368220,0.0625,-0.125,-0.0625
1535265697384632,0.0625,-0.1875,0.0625
1535265697405811,-0.25,0.125,0
1535265697427866,-0.0625,-0.125,-0.0625
1535265697444411,-0.0625,0,0
1535265697465464,0.125,-0.1875,-0.0625
1535265697488029,-0.0625,-0.25,0
1535265697504571,-0.125,0.125,0
1535265697525751,-0.0625,0.0625,0.0625
1535265697548195,0.125,-0.1875,0
1535265697564734,-0.3125,0.25,0
1535265697585794,-0.125,0,-0.0625
1535265697608345,0.1875,-0.25,-0.25
1535265697624388,-0.0625,0.1875,0.0625
1535265697645486,0.1875,-0.1875,0
1535265697668039,-0.125,-0.25,-0.125
1535265697684548,-0.1875,0.125,0
1535265697705682,0.125,0.0625,0.0625
1535265697728211,-0.0625,0.0625,-0.0625
1535265697744710,-0.25,-0.0625,-0.0625
1535265697765771,-0.0625,-0.0625,-0.0625
1535265697788330,0.125,-0.0625,0
1535265697804372,0.0625,-0.125,0
1535265697825426,-0.125,-0.125,-0.125
1535265697848486,-0.1875,0.125,0
1535265697864527,-0.0625,0,0
1535265697885585,0,0,-0.0625
1535265697908144,-0.125,-0.0625,0
1535265697924689,0,-0.0625,-0.0625
1535265697945793,-0.0625,-0.0625,-0.0625
1535265697968303,0.0625,-0.0625,0
1535265697991867,-0.125,-0.0625,-0.0625
1535265698005914,-0.125,0,-0.0625
1535265698036486,-0.0625,-0.0625,0
1535265698044507,-0.0625,0,-0.0625
1535265698065562,-0.1875,0,-0.0625
1535265698088123,0.0625,-0.0625,0.0625
1535265698104666,-0.0625,-0.125,0
1535265698125753,-0.125,-0.25,-0.0625
1535265698148332,-0.1875,-0.0625,0.0625
1535265698164331,0.0625,0.125,0.0625
1535265698185482,-0.125,0.0625,-0.125
1535265698208497,-0.125,-0.1875,-0.125
1535265698224791,-0.0625,-0.0625,0
1535265698247081,-0.1875,0.125,0
1535265698268135,-0.125,-0.125,0
1535265698290694,-0.0625,-0.25,0.125
1535265698315258,0,-0.125,0
1535265698328295,-0.0625,-0.25,0
1535265698344360,-0.0625,-0.1875,0
1535265698366894,-0.125,0,-0.0625
1535265698388026,0,-0.0625,-0.0625
1535265698404498,-0.1875,0.125,-0.125
1535265698427057,-0.25,0.5,0
1535265698448117,0.375,-0.4375,0.125
1535265698464657,-0.1875,-0.375,0
1535265698486714,-0.625,0.3125,0
1535265698508272,-0.125,-0.25,0
1535265698524315,0.3125,0,-0.125
1535265698547023,-0.375,0.125,0
1535265698569441,0.0625,-0.0625,-0.125
1535265698591997,-0.4375,-0.125,0.25
1535265698607036,1.375,0.3125,0.375
1535265698628093,0.8125,-2,0.0625
1535265698644637,-1.75,1.5,-0.75
1535265698667259,-1.25,0.125,0.625
1535265698688318,1.4375,-0.1875,-0.125
1535265698704530,-1.75,0.625,-0.125
1535265698726917,0.3125,0.125,0
1535265698748073,-0.1875,-0.6875,-0.1875
1535265698764684,0.5,0.5,0
1535265698787115,-0.5,0.25,0.4375
1535265698808235,0.1875,-0.6875,-0.0625
1535265698824677,0.625,-0.125,0
1535265698848615,-0.125,0.0625,-0.1875
1535265698870799,-0.25,-0.0625,-0.1875
1535265698884336,-0.3125,0.125,0.25
1535265698907079,0.125,-0.0625,0
1535265698927955,0.25,-0.5625,-0.1875
1535265698944497,-0.25,0.1875,0.1875
1535265698967055,-0.125,0.125,0
1535265698988111,0.1875,-0.1875,-0.25
1535265699010675,-0.125,-0.0625,0
1535265699027226,-0.125,0,-0.0625
1535265699048346,-0.3125,-0.125,-0.0625
1535265699070572,0,0.125,-0.0625
1535265699086874,-0.0625,-0.0625,0
1535265699107930,0,-0.125,-0.0625
1535265699130577,-0.3125,0.3125,0
1535265699147035,0.1875,-0.125,0
1535265699168152,0.0625,-0.125,-0.125
1535265699190653,-0.0625,0,-0.0625
1535265699207199,-0.0625,0,0
1535265699229254,0.125,-0.125,-0.0625
1535265699250816,-0.25,0.3125,-0.0625
1535265699267357,-0.1875,0,0
1535265699289468,0.0625,0,0
1535265699311019,0,-0.0625,0
1535265699327157,-0.375,0,-0.25
1535265699349622,0.25,-0.3125,-0.0625
1535265699370683,-0.125,0.3125,-0.1875
1535265699387221,0.125,-0.125,-0.4375
1535265699409780,-1.75,1.4375,-0.4375
1535265699430379,-2.0625,1.6875,0.5625
1535265699446886,4.3125,-2.75,0.125
1535265699469436,0.6875,-2.3125,-0.9375
1535265699490652,-2.5,3.4375,0.8125
1535265699507040,0.4375,0.4375,0.6875
1535265699529597,0.5625,-2.125,-1.8125
1535265699550652,-0.4375,0.6875,0.375
1535265699566695,-0.625,1.6875,0.875
1535265699589256,0.9375,-1,-0.9375
1535265699610418,1.25,-1.1875,0.125
1535265699626864,-0.1875,0.375,0.6875
1535265699649417,-0.25,-0.125,-0.4375
1535265699678982,0.375,0.125,0.0625
1535265699686999,-0.5,0.625,0.125
1535265699709558,0.1875,-0.5625,-0.5
1535265699730708,0.1875,-0.3125,0.0625
1535265699747157,-0.1875,0.1875,0.125
1535265699769719,0.0625,-0.4375,-0.1875
1535265699790772,-0.125,-0.0625,0
1535265699806313,-0.0625,0.1875,0.1875
1535265699828875,0.0625,0.0625,0
1535265699851434,0.0625,-0.0625,-0.25
1535265699865972,-0.3125,0.125,0
1535265699888531,0,-0.0625,0.125
1535265699911159,0.3125,-0.5625,0
1535265699926134,-0.125,0.0625,0
1535265699948694,-0.4375,0.3125,-0.125
1535265699979378,-0.25,0.25,-0.125
1535265699986413,0,-0.125,-0.125
1535265700008852,0.5625,-0.5,0
1535265700031456,-0.375,0.125,0
1535265700046486,-0.125,0.0625,0
1535265700068554,0.4375,-0.25,0
1535265700091180,0.375,-0.125,0
1535265700106224,-0.875,0.625,-0.125
1535265700128678,-0.25,-0.0625,-0.1875
1535265700151739,0.5625,-0.4375,-0.0625
1535265700166273,-0.375,0.4375,-0.0625
1535265700188834,-0.125,-0.375,0
1535265700211435,-0.125,-0.4375,0
1535265700225934,0,0.125,0
1535265700256014,-0.0625,0.4375,-0.125
1535265700271155,0.1875,-0.3125,-0.0625
1535265700286113,-0.3125,0.25,-0.125
1535265700308758,0.0625,0.125,0.0625
1535265700331271,0.125,-0.3125,-0.125
1535265700347823,-0.1875,-0.0625,-0.0625
1535265700368878,-0.1875,0,0.0625
1535265700391426,0.0625,-0.0625,-0.125
1535265700407470,-0.1875,0.125,-0.0625
1535265700429028,-0.0625,0,0.0625
1535265700451597,0,-0.0625,-0.125
1535265700467640,-0.25,0.25,-0.0625
1535265700488766,-0.25,0.3125,-0.0625
1535265700511256,-0.125,-0.3125,-0.0625
1535265700533823,-0.1875,-0.1875,0
1535265700548957,0.0625,-0.0625,0.125
1535265700571492,0.25,-0.0625,-0.125
1535265700587554,-0.1875,0.1875,0
1535265700609092,-0.4375,0.4375,-0.125
1535265700631152,0.3125,-0.5,0
1535265700647818,0.25,-0.3125,0
1535265700668749,-0.25,0.125,0.125
1535265700691366,0.25,-0.1875,-0.125
1535265700707865,-0.1875,-0.0625,-0.1875
1535265700728918,0.0625,0.25,0
1535265700751628,0.0625,0,0
1535265700767521,-0.125,0.125,-0.1875
1535265700790074,-0.1875,0,0
1535265700812898,0.0625,-0.1875,0
1535265700827693,-0.0625,-0.125,-0.0625
1535265700848851,-0.25,0.25,0
1535265700871383,-0.0625,0,-0.0625
1535265700887943,0,-0.0625,-0.125
1535265700908919,-0.25,0.25,0
1535265700931495,-0.1875,0,-0.0625
1535265700948018,-0.125,0.0625,0
1535265700969109,1.625,0.6875,0.25
1535265700991134,0.5,1.5,-0.0625
1535265701007676,3,-1.3125,0.875
1535265701028737,2.875,-1.9375,-0.3125
1535265701051290,-0.5625,1.1875,0.5
1535265701067333,1.1875,-0.25,1.125
1535265701088889,0.375,-0.375,-0.9375
1535265701111450,-1.4375,-0.1875,0.1875
1535265701126991,1.25,0.1875,0.25
1535265701148549,-0.375,-1.1875,-0.875
1535265701171107,-0.9375,1.5,0
1535265701187155,-0.375,-0.125,0.5
1535265701208743,0.375,0.0625,-0.8125
1535265701231270,-0.25,0,0.5625
1535265701246809,0.1875,-0.625,-0.125
1535265701269870,-0.625,-0.25,-0.625
1535265701291428,0,0.9375,0.375
1535265701307070,-0.625,0.125,-0.375
1535265701330033,-0.25,-0.4375,-0.1875
1535265701351089,0.0625,0.3125,0.1875
1535265701367140,-0.3125,0,-0.375
1535265701390197,-0.0625,0,0
1535265701411480,0.25,-0.5,0.1875
1535265701426795,-0.25,0.0625,-0.375
1535265701450350,0.0625,-0.125,0.0625
1535265701471408,-0.3125,0.125,-0.0625
1535265701487271,-0.25,0.25,-0.0625
1535265701510012,0.0625,0.0625,0.1875
1535265701531172,0.1875,-0.4375,-0.0625
1535265701547110,-0.25,-0.0625,0
1535265701570170,0.1875,0.25,0.1875
1535265701591328,-0.1875,-0.1875,-0.375
1535265701607267,0.375,-0.375,-0.0625
1535265701630340,-0.25,0.25,0.0625
1535265701651423,0,0,0
1535265701666927,-0.1875,-0.0625,0
1535265701689989,0.125,-0.1875,0.0625
1535265701711048,0,-0.125,-0.125
1535265701727121,0.125,0,0
1535265701750344,-0.25,0,-0.0625
1535265701771207,0.125,-0.1875,0
1535265701786746,-0.0625,0.125,0
1535265701810315,-0.125,-0.0625,-0.0625
1535265701831471,-0.25,0,0
1535265701846909,0.0625,-0.125,0.125
1535265701870971,0.125,-0.25,-0.125
1535265701899045,-0.25,0.0625,-0.125
1535265701907067,-0.25,0.0625,0
1535265701930140,0.125,-0.375,-0.125
1535265701951186,-0.125,0.0625,-0.0625
1535265701967226,-0.1875,0.1875,0.0625
1535265701990290,0.1875,-0.3125,0.0625
1535265702011354,-0.0625,0,-0.0625
1535265702026887,-0.1875,0.1875,0
1535265702049448,0.125,-0.0625,-0.0625
1535265702071505,0.125,-0.0625,0
1535265702087173,-0.125,0.0625,0
1535265702109609,0.3125,-0.375,-0.0625
1535265702131228,-0.125,0.0625,-0.0625
1535265702147208,-0.25,0.375,0
1535265702177787,0.0625,-0.25,0
1535265702191428,0.1875,-0.0625,0
1535265702206864,-0.1875,0,0
1535265702229425,-0.0625,0,-0.125
1535265702252628,-0.0625,0,0
1535265702267025,0.125,-0.0625,0
1535265702289609,0.0625,-0.25,-0.0625
1535265702312763,-0.3125,0.25,0
1535265702327185,0,0,0.0625
1535265702349745,0.125,-0.1875,0
1535265702372805,-0.25,0.125,0
1535265702387344,-0.125,0,0
1535265702409412,0.1875,-0.3125,0
1535265702432466,-0.0625,0,-0.125
1535265702454021,-0.1875,0.0625,0
1535265702476596,-0.0625,-0.1875,-0.125
1535265702492628,-0.25,0.3125,0
1535265702507164,0.0625,0,0
1535265702529827,0.0625,-0.25,-0.0625
1535265702552783,-0.1875,0.125,0
1535265702566904,-0.125,-0.0625,0
1535265702589381,0.125,-0.1875,-0.0625
1535265702612442,-0.125,0.0625,0.0625
1535265702627163,0,0,0
1535265702649543,0,-0.1875,-0.125
1535265702672604,-0.25,0.125,-0.0625
1535265702687142,0,-0.0625,0
1535265702709199,0.0625,-0.1875,0
1535265702733263,-0.0625,0.0625,0
1535265702753817,-0.1875,0,0
1535265702769359,-0.0625,-0.1875,0
1535265702792471,0.125,0,0
1535265702813546,-0.125,0.125,0
1535265702829557,-0.0625,-0.1875,0
1535265702852674,-0.25,-0.0625,-0.0625
1535265702873723,-0.0625,0.0625,-0.0625
1535265702889341,0,-0.0625,-0.0625
1535265702912833,-0.25,0,0
1535265702933880,0,-0.1875,0
1535265702949420,0,-0.0625,-0.0625
1535265702971979,-0.0625,0.125,-0.0625
1535265702993818,-0.3125,0.0625,0
1535265703009756,-0.25,0.0625,0
1535265703032242,0.1875,-0.125,0
1535265703053874,0.0625,-0.125,-0.125
1535265703069413,-0.3125,0.0625,-0.0625
1535265703091973,-0.1875,0.0625,0
1535265703114067,0.25,-0.125,0
1535265703129571,-0.0625,0.1875,0
1535265703152130,-0.25,0,0
1535265703175196,0.0625,-0.125,-0.0625
1535265703189230,0,0.0625,-0.0625
1535265703220313,0,-0.0625,-0.0625
1535265703235380,0,-0.25,-0.0625
1535265703249392,-0.1875,0.0625,0
1535265703271953,0.0625,0.0625,0
1535265703295515,0,-0.125,0
1535265703310051,-0.1875,0.125,0
1535265703332110,-0.125,-0.0625,0
1535265703355248,-0.0625,-0.125,0
1535265703369712,-0.0625,0.125,0
1535265703392131,-0.0625,-0.0625,0
1535265703415330,-0.125,-0.125,-0.125
1535265703429370,-0.25,0.1875,0
1535265703452157,0.0625,-0.0625,0
1535265703474994,0,-0.125,-0.0625
1535265703489557,-0.1875,0.0625,0
1535265703512089,0.125,-0.125,0
1535265703535151,0.0625,-0.0625,0
1535265703549689,-0.0625,0,0
