timestamp,x,y,z
1535252457917436,1.375,0.375,-0.375
1535252457941464,1.875,-0.1875,-1.9375
1535252457956505,1.25,0.4375,-2.375
1535252457977560,-0.75,-0.25,-1.375
1535252458001624,-3.125,-1,-1.375
1535252458016664,-0.75,-0.4375,-0.3125
1535252458068802,2.1875,0.3125,-0.375
1535252458068802,1.3125,0.25,0.75
1535252458077827,0,-0.375,1.6875
1535252458092424,0.75,0.0625,1.125
1535252458106904,0.5,-0.1875,0.5
1535252458127961,0.3125,-0.625,0.5
1535252458152025,1.5625,-0.3125,0.125
1535252458180099,0.75,-0.125,0.0625
1535252458191127,1.0625,0.375,0.3125
1535252458210240,0.625,0.3125,-0.0625
1535252458233660,-0.25,0.0625,0.125
1535252458247981,-0.8125,0.1875,-0.25
1535252458278361,-0.25,0.0625,-0.9375
1535252458285379,1.875,0.1875,-1.625
1535252458307756,1.0625,-0.125,-1.25
1535252458329540,-1.6875,-0.5625,-1.375
1535252458344538,-0.4375,-0.1875,-0.8125
1535252458367597,0.75,0,-0.5625
1535252458389656,-0.25,-0.25,0.6875
1535252458404696,-0.0625,-0.25,1
1535252458427758,1.4375,0.5625,1.4375
1535252458449872,-0.125,0.4375,1.3125
1535252458464856,-0.5,0.625,1.6875
1535252458487918,-0.3125,1,1.5625
1535252458509977,0.1875,0.9375,2.1875
1535252458526501,-0.4375,0.8125,2.375
1535252458547075,-1.375,0.5,2.625
1535252458578159,-0.1875,0.6875,1.6875
1535252458586288,2.3125,0.5625,0.1875
1535252458607234,1,-0.0625,-0.8125
1535252458630297,-0.5,-0.5,-0.8125
1535252458646375,0.3125,-0.1875,-1.1875
1535252458667394,0.4375,-0.125,-1.3125
1535252458690457,0.3125,-0.1875,-0.5625
1535252458706500,-0.125,-0.3125,-0.25
1535252458727662,0.5625,-0.25,0.125
1535252458749657,0.5625,-0.1875,0.3125
1535252458766661,-0.5,-0.1875,-0.25
1535252458790723,0.6875,-0.125,0.0625
1535252458809774,-0.1875,-0.1875,0.25
1535252458826847,-1.25,0.1875,0.75
1535252458847875,0.1875,0.4375,1.75
1535252458869961,1,0.625,2.5
1535252458886073,-0.3125,0.5625,3.625
1535252458907035,-2.5625,0.625,5.0625
1535252458930125,-1.9375,0.3125,7.0625
1535252458948142,1.1875,1.4375,8.3125
1535252458967193,1.3125,2.75,9.9375
1535252458990254,-0.625,2.75,10.9375
1535252459008302,-0.875,2.625,12.875
1535252459027381,-0.4375,2.875,13.4375
1535252459050415,1.6875,3,13.5
1535252459067460,4.25,3.625,13.1875
1535252459087515,2.8125,3.6875,12.4375
1535252459109680,0.4375,3.5,11.3125
1535252459127620,-0.875,2.625,10.625
1535252459147700,0.3125,2.0625,8.8125
1535252459170736,2.9375,2.0625,6.75
1535252459194800,3.6875,2.0625,5.3125
1535252459210013,4,1.125,3.625
1535252459230894,3.1875,0.375,1.5
1535252459247096,2.625,0.4375,-0.375
1535252459270006,1.5,0,-1.8125
1535252459291055,-0.25,-0.4375,-2.5
1535252459307098,-0.875,-0.8125,-3.1875
1535252459329955,-0.4375,-1.0625,-4.0625
1535252459350248,-1.0625,-1.6875,-4.25
1535252459367258,-0.3125,-1.875,-4.125
1535252459390319,0.625,-2,-2.9375
1535252459410400,-0.25,-2.75,-1.1875
1535252459427417,1.3125,-1.5625,0.375
1535252459449515,3.125,-0.0625,5.1875
1535252459473126,-0.0625,0.75,13.375
1535252459486575,-4.1875,1.5625,20
1535252459509637,-1.5625,4.5625,24.25
1535252459531697,6.8125,7.5,30.875
1535252459546737,7.75,8.25,39.1875
1535252459569949,3.9375,9.875,48.125
1535252459591855,2.875,11.5625,57.4375
1535252459620931,4.625,13.625,63.375
1535252459629956,5.1875,15.125,68.6875
1535252459652096,4.875,16.25,74.875
1535252459673106,2.5625,16.5,80.4375
1535252459690117,6.125,15.9375,85.25
1535252459720079,8.125,14.375,88.4375
1535252459733232,8.6875,14,90.5
1535252459749274,8.25,15.6875,92.6875
1535252459772336,5.625,16.6875,96.9375
1535252459793392,3.4375,16.875,99.75
1535252459809435,4.9375,15.375,100.438
1535252459832498,5.625,15.25,105.063
1535252459853551,4.0625,15.5,111.375
1535252459870010,-0.5625,14.25,113.813
1535252459891652,0.75,13.9375,111.563
1535252459912709,6.0625,18.0625,110.063
1535252459929754,7.25,17.1875,110.375
1535252459951889,2.0625,16,113.188
1535252459972869,-5.3125,12.375,111.063
1535252459989915,0.0625,9.875,107.25
1535252460011973,4.875,6.25,105.063
1535252460033314,5.125,5.5,102.625
1535252460050074,-2.25,2.1875,95.75
1535252460073138,3.1875,-4.25,86.1875
1535252460093219,5,-5.9375,85.1875
1535252460109232,-4.5,-7.75,82.8125
1535252460132350,4.125,-7.875,70.5
1535252460153353,-3.6875,-9.8125,72.0625
1535252460169392,-3.0625,-10.625,69.1875
1535252460192454,-5.4375,-15.1875,65.25
1535252460220646,-5.625,-16.9375,65.875
1535252460228668,-9.6875,-17.6875,63.5
1535252460252626,-10.4375,-16.4375,58.0625
1535252460280853,-8.5,-15.75,56.875
1535252460288905,-12.0625,-17.9375,57.375
1535252460311798,-15.4375,-15.3125,51
1535252460332876,-8.75,-12.875,44.9375
1535252460348870,-5.4375,-12.25,41.25
1535252460372991,-9,-11,36.25
1535252460395042,-7.375,-7.625,27.1875
1535252460409029,0.3125,-3.125,17.4375
1535252460432093,3.625,-1.6875,10.25
1535252460455158,3.125,0.625,-0.4375
1535252460476214,6.1875,2,-10.375
1535252460492252,10.5625,4.75,-22.25
1535252460515056,10.4375,4.625,-31
1535252460535370,8.625,4.5625,-36.6875
1535252460552411,6.75,6.125,-43.625
1535252460574470,4.5,6.6875,-51.75
1535252460595563,2.875,7.4375,-60.125
1535252460612574,1.1875,10.3125,-72.5625
1535252460634639,1,11.3125,-82.8125
1535252460655734,3.375,11.8125,-88.875
1535252460671780,0.75,8.1875,-93.6875
1535252460694791,-4.0625,5.25,-97.625
1535252460716199,-5.1875,4.25,-103.25
1535252460731890,-0.5,0.625,-98.75
1535252460754951,-4.9375,-4.4375,-90.0625
1535252460777481,-12.625,-6.125,-85.375
1535252460800070,-10.75,-6.375,-86.3125
1535252460815112,-4.25,-6.3125,-91.125
1535252460835214,0,-4.5,-89.5625
1535252460852213,-3.125,-5.1875,-85.25
1535252460874267,-7.4375,-6.9375,-82.3125
1535252460895358,-8.5625,-7.4375,-83.875
1535252460912444,-5.3125,-6.1875,-85.625
1535252460934962,-3.375,-2.4375,-86
1535252460955612,-3.75,-2.375,-90.3125
1535252460971651,-4.875,-2.5,-91.6875
1535252460994587,-9.3125,-6,-91.4375
1535252461015668,-10.875,-7.4375,-91.625
1535252461039707,-10.3125,-8.1875,-97.0625
1535252461054747,-6.1875,-8.25,-100
1535252461075804,-3.6875,-10.6875,-98.125
1535252461091927,-10.625,-15.4375,-96.8125
1535252461114908,-12.4375,-18.9375,-100.438
1535252461135964,-6.625,-20.8125,-99.375
1535252461151005,-3.3125,-23.1875,-93.6875
1535252461175069,-5.8125,-24.5,-93.75
1535252461196157,-2.25,-25,-93.375
1535252461218218,-9.25,-26.375,-83.6875
1535252461234262,-22.4375,-27.375,-76.5
1535252461255319,-27.125,-26,-73.8125
1535252461271644,-15.25,-19.75,-75.375
1535252461294390,-5.1875,-16.375,-68.6875
1535252461317450,-6.3125,-14.5625,-59.25
1535252461331590,-3.5625,-12.375,-60.0625
1535252461354546,3.1875,-11.0625,-58.625
1535252461377607,6.625,-12.4375,-50.8125
1535252461391644,1.8125,-12.0625,-45.4375
1535252461414708,0.1875,-9.875,-51.25
1535252461436801,4,-9.125,-51.75
1535252461451805,2.6875,-11.4375,-41.0625
1535252461474866,-8.5625,-11.25,-34.3125
1535252461496926,-6,-7.9375,-37.875
1535252461517988,8.5625,-5.6875,-37
1535252461535026,10.8125,-6.0625,-29.6875
1535252461563213,-1,-6,-25.375
1535252461578143,-1.625,-4.9375,-24.875
1535252461594242,7.3125,-3.375,-20.8125
1535252461617246,2.875,-2.5,-14.0625
1535252461645321,-3.125,-0.4375,-8.4375
1535252461654478,0.5,1.75,-3.1875
1535252461677406,0.3125,2.9375,4.5625
1535252461691444,-5,3.875,10.6875
1535252461714504,-2.875,5.3125,16.25
1535252461737563,2.25,7.5625,23.0625
1535252461758622,1.1875,9.3125,30
1535252461774743,-1.3125,10.375,35.6875
1535252461796755,3.9375,10.75,39.4375
1535252461817831,6.3125,11.125,42.5
1535252461834823,4.5625,12.1875,45.3125
1535252461864906,4.6875,13.5,49.0625
1535252461885999,6.4375,13.1875,53.0625
1535252461894988,9.25,13.125,57.9375
1535252461917045,9.5625,12.625,60.8125
1535252461938141,13.1875,12.1875,62.3125
1535252461954184,16.125,12.3125,65.6875
1535252461977203,10.9375,12.5625,70.0625
1535252461998314,5.9375,13.9375,72.6875
1535252462014308,7.75,17.0625,75.25
1535252462037369,8,17.6875,78.3125
1535252462058598,10.875,16.625,81.3125
1535252462073511,12,15.9375,83.25
1535252462097527,12.25,15.125,84.4375
1535252462118688,17.4375,11.5625,85.3125
1535252462142644,23.75,7.1875,85.9375
1535252462157637,23.8125,6.125,87.0625
1535252462178739,20.3125,5.5625,90.8125
1535252462193783,19.625,5.8125,93.25
1535252462216988,20.5625,4.4375,93.1875
1535252462237934,17.625,6.0625,94.5
1535252462253939,10.375,8.6875,97.125
1535252462277000,6.3125,8.875,98.4375
1535252462300061,10.5625,6.3125,99
1535252462314229,14.375,5.6875,94.8125
1535252462337165,12.25,5.75,92.75
1535252462359224,9.6875,6.125,94.4375
1535252462374530,4.25,7.1875,92.8125
1535252462397471,4.75,4.875,90
1535252462419854,9.5,5.5625,87.25
1535252462442440,11.4375,6.75,85.8125
1535252462456516,9.5625,2.6875,88.3125
1535252462496584,3.5,-2.4375,88.75
1535252462508658,-2.0625,-1.9375,82.9375
1535252462518859,3.5625,-1.6875,75.0625
1535252462539699,10.9375,6.1875,72.9375
1535252462560883,11.25,6.4375,74.6875
1535252462576885,2.0625,-5.5,76.0625
1535252462599924,-5.3125,4.6875,69.5
1535252462620918,-3.5625,-3.4375,70.1875
1535252462636957,6.875,6.6875,60.25
1535252462660020,4.125,-0.375,57.375
1535252462681107,-1.5,2.25,55.25
1535252462697119,2.5,2.75,49.75
1535252462719247,6.8125,0.9375,49.3125
1535252462741243,1.625,-0.1875,49.875
1535252462757288,-2.6875,0.5625,48.5625
1535252462779341,0.375,-0.9375,45.25
1535252462800500,3.25,-3.375,48.1875
1535252462817438,-4.0625,-5.875,47.75
1535252462839496,-5.625,-4,39.125
1535252462860628,1.75,-2.25,37.5
1535252462877599,-0.4375,-1.4375,32
1535252462899769,-0.4375,1.625,22.125
1535252462920749,3,4.5,13.9375
1535252462936793,3.375,6.125,3.6875
1535252462974897,4.875,7.1875,-3.875
1535252462987889,4.75,7.875,-12.625
1535252462996915,3.3125,8.25,-23.375
1535252463019981,4.375,9.0625,-34.1875
1535252463042038,6.0625,9.625,-41.25
1535252463056152,4.1875,8.8125,-45.75
1535252463086221,-0.75,7,-50.8125
1535252463101192,-2.125,7.3125,-59.6875
1535252463116233,-1.3125,8.6875,-72.75
1535252463139409,6.0625,11.4375,-81.3125
1535252463160971,7.3125,11.0625,-81.125
1535252463176403,1.125,9.625,-83.875
1535252463200460,-5.125,7.625,-91.1875
1535252463228540,-3.1875,5.5,-98.1875
1535252463260619,1,2.875,-103.438
1535252463290697,0.125,0.6875,-103.813
1535252463292703,-7.625,-2.5,-103.688
1535252463305737,-11.5,-3.6875,-102.938
1535252463319776,-8.75,-3.4375,-107
1535252463342839,1.875,-3.875,-112.313
1535252463362890,7.3125,-2.9375,-112.563
1535252463379937,1.1875,-4.9375,-110.313
1535252463402114,-9.6875,-7.3125,-108.688
1535252463423095,-13.9375,-7.625,-113.188
1535252463440103,-2.75,-7.6875,-117.938
1535252463462392,-1.125,-10.9375,-118.875
1535252463483210,-10.5625,-15.6875,-117.75
1535252463499316,-15.4375,-20.25,-117.25
1535252463522320,-9.1875,-21.4375,-120.25
1535252463543484,-7.25,-22.5625,-119.313
1535252463559418,-8.5625,-24.0625,-117.063
1535252463582476,-4.8125,-22.6875,-112.25
1535252463603566,4.8125,-23.875,-116.625
1535252463619582,3.6875,-23.6875,-113.875
1535252463641676,-8,-21.8125,-103.188
1535252463663692,-18.9375,-19.9375,-92.375
1535252463679734,-23.6875,-18.75,-81.75
1535252463701793,-17.8125,-16.5625,-68.875
1535252463722890,-12.25,-16.4375,-59.4375
1535252463739894,-3.875,-16.3125,-55.625
1535252463761950,6.1875,-16.25,-49.25
1535252463783183,5.1875,-16,-39.5
1535252463807119,-6,-12.9375,-31.5
1535252463822111,-12.1875,-8.8125,-29.6875
1535252463844329,-7.4375,-4.8125,-30.8125
1535252463859210,-5.0625,-5.625,-29.3125
1535252463882269,-11.375,-8.3125,-23
1535252463903325,-13.4375,-6.875,-21.75
1535252463919368,-4.25,-4.25,-24.875
1535252463942430,5.25,-4.25,-25.8125
1535252463963490,4.0625,-6.1875,-20.75
1535252463978529,-4.25,-7,-15.125
1535252464002593,-6.375,-3.8125,-15.3125
1535252464023655,-2.875,-1.9375,-16.125
1535252464038696,0.5625,-1.9375,-14.25
1535252464062800,-1.25,-3.8125,-14.125
1535252464082804,-2.4375,-4.25,-16.3125
1535252464106869,1.75,-2.75,-18.375
1535252464121908,1.3125,-2.8125,-17.9375
1535252464143040,-3.5625,-4.1875,-16.4375
1535252464160074,-4.6875,-4,-15.875
1535252464182068,-0.5625,-3.0625,-16
1535252464205140,0.125,-3.0625,-13.375
1535252464219216,-5.0625,-3.3125,-11.3125
1535252464242490,-6.875,-3.1875,-10.5625
1535252464264290,-0.625,-2.1875,-10.3125
1535252464279328,-2.3125,-1,-8.25
1535252464302388,-9.75,-0.8125,-5.8125
1535252464324689,-10,-1.8125,-3.6875
1535252464339616,-4.0625,-2.5625,-1.5
1535252464362550,-0.5625,-2.4375,2.125
1535252464384610,1.0625,-1.1875,9.5625
1535252464398652,0.9375,0.8125,18.3125
1535252464421753,0.0625,3,26.125
1535252464444768,4.1875,4.75,33.125
1535252464465865,5.375,6.5,38.75
1535252464481867,2.125,8.875,44.1875
1535252464505108,4.25,10.75,50.1875
1535252464525996,9.5,11.875,54.1875
1535252464542030,11.125,13,56.875
1535252464565088,10.625,13.9375,58.9375
1535252464586148,10.9375,15.0625,61.125
1535252464602391,7.75,16.0625,66.875
1535252464624244,6.25,14.8125,70.25
1535252464645303,9.1875,14.875,70.875
1535252464662350,12.0625,15.5,71.4375
1535252464684452,11.25,15.0625,73.3125
1535252464706473,9,14.625,75.125
1535252464722509,6.8125,16.0625,76.75
1535252464745141,9.125,16.75,75.3125
1535252464767628,10.4375,15.875,75.6875
1535252464782668,8.25,16.5625,78.4375
1535252464804830,3.75,16.5,80.8125
1535252464825823,2.875,16.125,82.5625
1535252464841873,4.375,16,84.6875
1535252464864886,7.125,16.25,87.8125
1535252464886050,6.9375,15.1875,91.9375
1535252464901987,4.6875,15.4375,94.25
1535252464925056,6.625,16.375,92.125
1535252464946100,10.5,16.25,91
1535252464961242,8.5625,13.4375,93.9375
1535252464984202,3.9375,6.875,95.6875
1535252465007281,3.125,2.1875,92.25
1535252465021313,14.3125,1.0625,90.375
1535252465044758,15.625,-3.4375,90.75
1535252465065422,5.25,-7.625,88.3125
1535252465081464,1.625,-9.625,87.3125
1535252465104525,6.9375,-5.8125,84.875
1535252465127638,9.25,-1.8125,80.8125
1535252465141624,6.4375,-1.8125,82.375
1535252465165685,1.5625,-3.1875,86.5
1535252465192757,-2.4375,-1.25,86.9375
1535252465201781,1.5625,-0.25,86.1875
1535252465239881,7.75,0.3125,86.875
1535252465246901,5.9375,-5,90.625
1535252465268960,3.125,5.6875,84.5
1535252465269961,5.375,-6.9375,81.25
1535252465290042,15.8125,3.1875,71.125
1535252465312074,5.8125,-0.1875,76.6875
1535252465330121,5.375,-4.4375,71.25
1535252465350175,5.375,-4.3125,67.875
1535252465380255,3.3125,-5.1875,63.4375
1535252465390281,4.0625,-5.5,58.125
1535252465410334,1.9375,-4,50.25
1535252465440416,3.3125,-3.1875,46
1535252465457459,1.75,-4.8125,47.3125
1535252465469491,-5.0625,-4.8125,44.5625
1535252465492590,-3.3125,-3.4375,36.3125
1535252465514612,-1.625,-2.625,31.0625
1535252465529734,-1.3125,-1.625,32.875
1535252465552778,-5.4375,-0.25,27
1535252465574773,-3,3.25,17.8125
1535252465589866,2.375,6.1875,12.0625
1535252465612885,0.6875,5.8125,7.0625
1535252465634982,-0.5625,5.6875,-0.125
1535252465650025,1.625,6.875,-9.1875
1535252465675078,6.0625,6.0625,-17.125
1535252465695265,5.8125,4.5,-23.75
1535252465726213,3.6875,4.5,-29.875
1535252465732195,3.5,3.5,-33
1535252465755290,0.75,2.375,-38.625
1535252465770294,-1.5,3.5,-47.1875
1535252465792381,-1.75,6.125,-59
1535252465815413,-5.875,7.125,-76.5625
1535252465830455,-6.3125,7.5625,-87.625
1535252465852516,-2.5625,9.6875,-98.25
1535252465874608,-3.3125,6.25,-104.813
1535252465891617,-4.75,2.4375,-115.188
1535252465912674,-3.25,-0.875,-120.75
1535252465934768,-5.6875,-4.0625,-123.75
1535252465957829,-6.25,-5.25,-123.25
1535252465972834,-9.5,-9.5,-117.375
1535252465994960,-16.3125,-10.25,-109.5
1535252466010128,-13.375,-7.625,-108
1535252466032997,-3.25,-3.8125,-111.5
1535252466055086,6.5,-2.125,-115.625
1535252466077146,12.3125,-2.5,-118.75
1535252466092155,-0.1875,-9.0625,-114.063
1535252466115210,-26.375,-14.8125,-106.5
1535252466130257,-29.3125,-14.25,-104.875
1535252466152346,-9,-7.0625,-109.75
1535252466175410,7.1875,-6.75,-106.438
1535252466190486,-4.0625,-11.75,-97.875
1535252466212578,-20.5625,-13.375,-92.5
1535252466236544,-20.75,-12.125,-96.5
1535252466249604,-3.625,-9.8125,-102.188
1535252466272700,-2.3125,-15,-96.9375
1535252466294726,-13.5625,-18.5,-89.125
1535252466309735,-14,-20.25,-90.8125
1535252466332792,-2.3125,-20.25,-90.4375
1535252466363947,-1,-20,-84.875
1535252466369979,-6,-19.9375,-81.125
1535252466392951,-5.5,-19.9375,-78.5
1535252466415010,-7.5,-19.5,-72.1875
1535252466430049,-12.625,-18.1875,-65.5625
1535252466452145,-12.5625,-17.3125,-63.375
1535252466475204,-6.125,-17,-60.625
1535252466490256,-3.0625,-15.875,-55.75
1535252466512303,-5.5,-14.75,-49.875
1535252466535365,-6.4375,-13.625,-47.4375
1535252466557423,-2.125,-11.375,-44.875
1535252466572434,-4.8125,-10.4375,-38.75
1535252466595542,-10.5,-9.3125,-31.3125
1535252466609525,-7.5625,-6.5625,-29.4375
1535252466632588,1.3125,-4.5,-27.5
1535252466663805,2,-4.5625,-22.8125
1535252466671693,-3.625,-4.875,-17.8125
1535252466692852,-2.25,-3.375,-13.3125
1535252466714841,1.5625,-2.625,-9.5
1535252466731852,1.75,-1.0625,-4.1875
1535252466752957,0.75,1.25,1.0625
1535252466769972,0.875,2.5,4.75
1535252466791019,1.4375,2.75,7.0625
1535252466813079,2.8125,3.1875,7.4375
1535252466835129,2.5,4.3125,6.8125
1535252466860195,3.875,5.5,7
1535252466875265,6.75,5.8125,7.4375
1535252466890273,9.0625,6.0625,7.1875
1535252466911328,11.625,6.6875,6.5625
1535252466932384,10.4375,5.6875,6.75
1535252466950433,6.625,4.6875,6.625
1535252466971491,4.6875,5.0625,5.125
1535252466992586,8.75,4.5,4.375
1535252467010598,14,1.9375,5.1875
1535252467032652,17.4375,0.0625,7.4375
1535252467052742,15.6875,-0.125,8.0625
1535252467070753,13.25,2.5625,9.4375
1535252467092815,27.125,3.8125,12.375
1535252467112907,37.6875,3.375,13.75
1535252467134962,36,4,13.5
1535252467160412,37.625,7.625,12.5625
1535252467172059,40.9375,12.6875,11.6875
1535252467195126,37.25,17.6875,14.0625
1535252467213133,29.125,13.875,10.0625
1535252467232183,26.3125,15.875,2.8125
1535252467255281,40.625,21.125,-0.75
1535252467273292,60.8125,21.125,-1.9375
1535252467292443,64.75,22.375,-2.25
1535252467315406,58.25,22.25,-1.3125
1535252467332449,58.8125,22.4375,-5.375
1535252467352613,70.1875,21.5,-5.9375
1535252467375599,94.0625,17.5,-8.9375
1535252467392614,106.438,7.0625,-10.5625
1535252467415676,113.75,-4.8125,-16.3125
1535252467434724,130.375,-12.1875,-29.75
1535252467452772,160.875,-20.125,-35.625
1535252467472825,172,-30.125,-36.9375
1535252467494882,152.188,-38.5625,-45.5625
1535252467512930,129.5,-42,-48.0625
1535252467534103,137.063,-45.125,-43
1535252467555044,143.625,-49,-39.5625
1535252467573241,124.625,-50,-38.9375
1535252467592214,118.75,-48.4375,-41.125
1535252467615203,121.313,-50.375,-35.6875
1535252467633252,118.875,-57.9375,-34.8125
1535252467654307,110.688,-55.375,-41.4375
1535252467675405,106.25,-50.125,-39.0625
1535252467693411,114.813,-52.1875,-26.375
1535252467714471,107.125,-50.5,-26.5625
1535252467735522,90.3125,-45.5625,-27.5625
1535252467752570,79.125,-47.125,-23.4375
1535252467773668,67.4375,-48.625,-19.875
1535252467795694,44.125,-41.25,-18.875
1535252467812896,33.25,-36.9375,-15.25
1535252467834273,22.1875,-34.8125,-10.25
1535252467854966,8.5625,-21.0625,-13.4375
1535252467873231,-0.3125,-12.125,-10
1535252467894057,-9.0625,-4.3125,-6.6875
1535252467915140,-23.1875,-2.375,-4.125
1535252467933048,-39.125,-4.5,-6.0625
1535252467954435,-38.75,-5,-9.75
1535252467975259,-25.4375,0.625,-9.5
1535252467993213,-22.1875,3.0625,-7.375
1535252468015735,-10.3125,12.5,-12.25
1535252468035418,-12.5,27.4375,-2.25
1535252468053372,-15.5625,18.125,5.5
1535252468075854,-11.6875,6,0.3125
1535252468095061,-1.875,3.6875,-4.375
1535252468112642,-2.25,9.75,-4.25
1535252468135587,-10,9.0625,0.5
1535252468154715,-11.125,4.25,0.5625
1535252468171732,-0.625,2.875,-0.25
1535252468195749,5.625,4.625,1.8125
1535252468214805,1.1875,4.3125,1.3125
1535252468232849,-4.6875,5.375,1.375
1535252468256098,-2.625,12.9375,2.4375
1535252468275960,-7.375,11.25,2.1875
1535252468292005,6.375,4,1.375
1535252468314059,20,1.9375,0.625
1535252468336119,15.6875,-0.3125,3.375
1535252468352224,7.5625,-2.375,1.125
1535252468374219,-6.5625,-1.75,-0.125
1535252468395364,-6.75,-0.75,0.3125
1535252468412326,2.0625,-0.25,0.0625
1535252468434381,7.25,0.5625,0.9375
1535252468455442,9.6875,1.0625,0.375
1535252468472483,1.3125,2,-2.5625
1535252468502563,-5.3125,1.8125,-0.5625
1535252468515598,-1,2.0625,-0.25
1535252468532642,2.125,2.25,-0.9375
1535252468554732,5.0625,3.3125,0.375
1535252468575822,4.8125,3.25,0.1875
1535252468591836,2.8125,2.8125,-0.8125
1535252468614864,1.6875,1.4375,0.125
1535252468635960,2.4375,0.875,-0.4375
1535252468651965,0.875,0.3125,0.375
1535252468675028,0.75,0.6875,0.375
1535252468696080,-0.6875,-0.1875,0.3125
1535252468712391,1.5,-0.625,0.0625
1535252468734181,4.25,0.625,-0.3125
1535252468755235,1.5625,0.75,0
1535252468778357,-2.25,-1.0625,-0.4375
1535252468794439,-0.4375,-2,-0.25
1535252468817407,1.5625,-0.1875,-0.875
1535252468832443,-1,-0.125,-0.125
1535252468854536,0.9375,-0.25,0.25
1535252468875659,0.0625,0.375,-0.6875
1535252468892606,-1.5625,0,-0.5625
1535252468914662,-0.6875,0.1875,-0.0625
1535252468936718,0.5,-0.3125,-0.375
1535252468951758,1.0625,0.375,-0.625
1535252468974824,0.5625,1.3125,-0.625
1535252468996879,0.875,1.125,-0.4375
1535252469010954,1,0.625,-0.5625
1535252469034982,-1.1875,0.3125,0
1535252469057055,-1.75,1,1.3125
1535252469072080,0.125,4.875,1.3125
1535252469094230,-1,5.9375,1.0625
1535252469117197,-3.125,3.75,-0.9375
1535252469131500,-0.1875,1.3125,-1.9375
1535252469154349,0.375,-1.375,-1.3125
1535252469177360,-0.75,0.4375,-0.8125
