timestamp,x,y,z
1535265306292661,-74.1875,-41.6875,-93.1875
1535265306315221,-90.625,-73.25,-26.5625
1535265306337279,-81.0625,-46.3125,-77.625
1535265306360842,-94.5625,-5.25,-42.625
1535265306375381,-56.4375,-29.5,-37
1535265306406464,-27.875,-21.25,-154.813
1535265306412513,39.6875,-68.4375,-197.938
1535265306436543,62.1875,-142.375,-243.938
1535265306457599,-9.25,-107.938,-274.625
1535265306472639,14.6875,-87.25,223.625
1535265306511242,-40.375,-12.5,73.1875
1535265306518782,-22,97.1875,-95.375
1535265306534304,22.75,-81.625,32.3125
1535265306556495,-73.9375,-139.688,137.313
1535265306582432,-17.875,-16.3125,28
1535265306596470,30.25,62.3125,22
1535265306637580,-33.75,46.625,18.5625
1535265306647605,-75.25,48.875,26.375
1535265306654124,-44.1875,6.8125,-6.125
1535265306675681,8.6875,-45.1875,25.5625
1535265306698240,83,19.375,-10.5625
1535265306712277,51.25,-26.625,-9.25
1535265306735839,18.8125,-19.75,44.25
1535265306758399,29.625,-28.125,58.375
1535265306772437,70.0625,17.375,121
1535265306795805,-43.25,3.8125,181.25
1535265306818318,-65.25,-1.75,64.375
1535265306832603,-122.188,-9.5,53.5625
1535265306855664,-61.6875,2.1875,-49.5
1535265306878224,-94.75,-3.4375,-263.063
1535265306892764,-223,31.625,-138.75
1535265306915824,-42,-73.625,-126.875
1535265306937882,174.625,20.3125,-41.4375
1535265306952421,148.938,-54.9375,39.0625
1535265306975482,112.375,-65.9375,9.625
1535265306998043,38.625,-12.5625,5.1875
1535265307012605,9.5,-22.9375,-8.375
1535265307035643,-11.625,-70.375,7.625
1535265307058203,105.125,143.188,-456.5
1535265307072742,70.75,83.3125,-62.625
1535265307095803,-13.5625,-104.125,-25.625
1535265307118365,14.3125,37.875,-93
1535265307132508,-31.4375,-27.3125,-76.125
1535265307155963,31.1875,-29.875,-83.8125
1535265307178022,65.0625,-7.1875,-62.5
1535265307194064,5.5,-26.5,12.8125
1535265307215742,32.5625,-7.375,-19.9375
1535265307238189,69.6875,12.1875,35.1875
1535265307253731,-2.125,-45.3125,-12.9375
1535265307283309,18.3125,-76.1875,-11.5
1535265307298392,35.125,-51.8125,-20.4375
1535265307313891,19.375,-66.6875,-15.9375
1535265307335450,24.3125,-91.3125,6.5625
1535265307358009,42.125,-74.3125,-81.4375
1535265307382574,25.875,-49.25,-20.1875
1535265307395608,50.4375,-43.25,-19.875
1535265307418168,45.8125,-38.625,13.9375
1535265307434211,63.8125,-26.4375,40.375
1535265307455769,57,-23,32.25
1535265307478328,40.5,-31.0625,34.3125
1535265307493887,29.1875,-33.6875,50.625
1535265307515928,39.0625,-43.4375,39.625
1535265307537987,43.6875,-41.3125,28.25
1535265307554030,28.0625,-36.8125,33.0625
1535265307575085,26.3125,-29.3125,34.4375
1535265307598206,25.4375,-27.6875,30.3125
1535265307613688,33.1875,-28.125,17.25
1535265307636756,23.3125,-24.8125,14.3125
1535265307659831,42.5,-27.6875,13
1535265307681388,67,-25,13.25
1535265307696430,72.1875,-10.5,2.875
1535265307719491,66.0625,0.0625,-15.25
1535265307740547,73,-4.375,-2.1875
1535265307756589,61.5625,-9.5625,-11.75
1535265307779716,45.4375,-6.6875,-18.75
1535265307802715,19.25,3.1875,-7.25
1535265307816267,21.75,16.4375,5.125
1535265307839811,40.9375,22.375,9.8125
1535265307853873,162.125,18.25,-40.5625
1535265307874903,189.25,-25.125,-98.0625
1535265307897965,140.813,-41.8125,-101.75
1535265307914008,90,-35.75,-38.5625
1535265307935063,4.9375,-26.3125,-33.9375
1535265307959629,20.875,-26.1875,-29
1535265307974168,37.5,-25.6875,-29.25
1535265307995224,41.375,-22.875,-23.4375
1535265308018361,47.875,-20.5625,-17.1875
1535265308033899,54.375,-15.625,-12.8125
1535265308056386,44.9375,-13.5625,-7.875
1535265308078447,38,-15.75,-6.375
1535265308094040,44.0625,-16.3125,-7.8125
1535265308116549,40.625,-12.8125,-2.9375
1535265308138107,-3.5625,-7.0625,-3.25
1535265308154147,15.9375,-12.75,-6.0625
1535265308176706,34.5625,9.6875,-15.25
1535265308198264,-3.875,6,-1.25
1535265308213806,-59.375,-10.625,2.8125
1535265308236366,-28.0625,-5.8125,-26.6875
1535265308258425,9.6875,-4.6875,-47.0625
1535265308274022,16.9375,-3.6875,-52.0625
1535265308303043,22.1875,-13.8125,-33.8125
1535265308318121,-5.375,-21,-16.8125
1535265308334127,-3.125,-15.5,3.6875
1535265308356688,12.5,-17.0625,6.9375
1535265308378247,9.125,-15.1875,2.1875
1535265308394285,-9.5,-6.9375,5.0625
1535265308416344,-28.6875,3.0625,2.125
1535265308438409,-15.8125,8.5,-8
1535265308485027,37.125,7.5,-33.875
1535265308486029,75.5,4.375,-65.8125
1535265308497560,120.313,7.4375,-107.625
1535265308514104,137.938,25.25,-98.0625
1535265308536665,139.188,26.625,-115.188
1535265308557721,130.188,46.0625,-119.938
1535265308582286,70.625,30.8125,-90.75
1535265308596404,32.0625,28,-38
1535265308617380,30.875,56.8125,-18.875
1535265308633924,35.125,73.375,-9.8125
1535265308656482,21.6875,67.125,4
1535265308677540,46.8125,90.0625,-22.5625
1535265308694083,51.5625,94.6875,-33.3125
1535265308716673,32.375,88.75,-5.75
1535265308737739,16.75,67.0625,36.6875
1535265308754250,-11.75,7.9375,38
1535265308776303,-60.875,-40.1875,64.375
1535265308797409,-133.938,-44.8125,29.8125
1535265308813903,-223,-57.75,87.9375
1535265308843032,-431.188,-115.875,62
1535265308859076,-414.5,-162.438,51.625
1535265308882086,-408.063,-22.6875,-67.8125
1535265308904645,-365.75,-31.625,5.75
1535265308919181,-148.188,-8.875,-15.25
1535265308942248,-45.875,-16.1875,-7.75
1535265308963340,-14,1,-9.6875
1535265308978842,-7.75,3.5,-8.5
1535265309001908,19,0.6875,5.375
1535265309023464,9.4375,-0.5625,-1.5
1535265309039003,-36.125,-2.375,5
1535265309062064,-87.375,-6.25,5.3125
1535265309090675,-84.25,-4.875,3.6875
1535265309099165,-54.6875,-2,-0.125
1535265309122231,-14.875,-1.8125,-0.8125
1535265309143283,10.375,-4.0625,9.1875
1535265309158820,52.8125,-3,12.75
1535265309182384,74,-4.125,2.4375
1535265309203440,81.5,-6.3125,11.4375
1535265309227246,42.8125,-15.875,35.625
1535265309242043,93.9375,-15.75,6.0625
1535265309263148,86.875,-18.25,8.0625
1535265309279192,85.3125,-34.5,29.75
1535265309302204,64.1875,-19.1875,50.1875
1535265309323268,39.5,-12.875,44.9375
1535265309338799,4.9375,-6.5625,30.5
1535265309362396,-19.25,-8.6875,15.5625
1535265309390479,-19.75,-14.1875,4.8125
1535265309397956,-27.0625,-15,-1.875
1535265309414062,-117.188,-22.875,-7.6875
1535265309435098,-223.563,-22.1875,17.6875
1535265309458119,-288.625,-18.875,37.875
1535265309474159,-215.313,-8.5625,10.75
1535265309495758,-78.875,7.5,5.8125
1535265309518319,2.625,23.4375,-0.0625
1535265309532446,3.875,25.25,1.5
1535265309555925,-42.1875,24.3125,13.1875
1535265309578444,-83.6875,27.125,30.0625
1535265309592515,-109.563,39.9375,38.5625
1535265309624059,-121.5,48.375,46.125
1535265309638275,-127.125,52.9375,62.1875
1535265309652634,-123.75,66,73.9375
1535265309675694,-119.313,76.5,78.25
1535265309698297,-82.875,83.8125,77.8125
1535265309712334,-49.3125,96.6875,84.1875
1535265309735878,-39.75,107.688,86.6875
1535265309758459,-45.625,112.063,93.125
1535265309780975,-53.875,115.25,98.4375
1535265309795554,-58.375,120,100.25
1535265309818076,-56,124.875,100.875
1535265309832614,-49.9375,123.75,104.25
1535265309855677,-43.5625,117.5,108.375
1535265309878236,-43.8125,117.75,110.813
1535265309892796,-46.4375,115.938,110.938
1535265309915879,-37.0625,111.313,111.25
1535265309938395,-25.3125,108.125,111.625
1535265309952571,-28.75,103.313,113
1535265309976066,-34.5,96.875,111.875
1535265309998094,-34.25,86.375,109
1535265310012592,-26,81.625,110.938
1535265310035689,-25.1875,79.125,113.313
1535265310058214,-34.3125,71.8125,108.563
1535265310072752,-28.875,65.0625,102.375
1535265310095816,-17.9375,64.875,100.25
1535265310118377,-14.5,60.3125,102.438
1535265310132451,-23.4375,59.875,105.063
1535265310158486,-27.9375,57.75,101.75
1535265310178035,-18.1875,57.5625,97.4375
1535265310192611,-6.375,58.5625,95.9375
1535265310215632,-7.5,55.375,94.8125
1535265310246214,-18.3125,52.375,93.1875
1535265310252731,-15.4375,49.375,84.4375
1535265310275793,-2.5625,48.6875,83.9375
1535265310298352,-0.8125,47.5625,80.6875
1535265310312447,-9.5,41.5625,69.6875
1535265310335955,-7.75,35.75,66.875
1535265310358056,-4.625,32.4375,66.8125
1535265310372600,-11.5625,27.1875,60.9375
1535265310395662,-12.625,21,55.5
1535265310418222,-7.9375,15.75,40.125
1535265310432741,-1.3125,11.9375,24.25
1535265310455274,6.3125,6.4375,9.375
1535265310477328,11.5625,-0.625,-3.8125
1535265310492369,10.5625,-8.5625,-19.0625
1535265310514979,10.875,-13.3125,-36.75
1535265310537490,11.25,-19.3125,-60.375
1535265310552585,9.625,-25.1875,-79.125
1535265310575139,12.625,-31,-87.875
1535265310597651,15,-36.3125,-99.625
1535265310612737,13.5625,-41.3125,-118.188
1535265310635285,12.75,-46.25,-138.25
1535265310657810,17.4375,-50.625,-157.375
1535265310673351,23.9375,-59.625,-174.125
1535265310694910,27.875,-70.25,-193.438
1535265310719124,39.75,-82.75,-209.063
1535265310732509,44.5625,-98.0625,-219.313
1535265310763125,57.4375,-116.938,-237.313
1535265310777667,71.0625,-136.938,-252.375
1535265310800729,62.3125,-164.875,-258.438
1535265310815266,32.5,-191.813,-242.313
1535265310837788,38.4375,-193.125,-225.563
1535265310852347,62.75,-183.313,-209.375
1535265310874891,104.875,-174.563,-194.313
1535265310897447,131.25,-163.313,-183.813
1535265310912493,120.25,-148.438,-177.438
1535265310935052,105.75,-124.813,-149.625
1535265310957751,91.0625,-104.688,-102.25
1535265310972789,69.9375,-96.125,-72.9375
1535265310994945,63.8125,-85.8125,-59.6875
1535265311020413,99.5625,-65.125,-30.5
1535265311032448,137.75,-62.4375,-9.5
1535265311055111,159.188,-65.0625,-2.5625
1535265311077687,179.625,-60.75,5.25
1535265311092604,209.188,-59.25,13.625
1535265311115166,219,-57.25,25.1875
1535265311137823,215.375,-58.6875,33.8125
1535265311152764,198.875,-60.75,25.4375
1535265311174860,175.125,-54.75,14.6875
1535265311198888,154,-40.1875,8
1535265311212541,132.5,-35.0625,13.3125
1535265311235102,90.375,-34.9375,18.6875
1535265311257547,43.8125,-32.9375,17.8125
1535265311272584,15.1875,-26.0625,13.125
1535265311295172,3.125,-17.8125,6.625
1535265311333277,1.8125,-12.625,-4.375
1535265311349318,-2.25,0,-6.625
1535265311363855,0.3125,1.375,6.25
1535265311385913,-9.25,-5.5625,14.3125
1535265311402459,-9.4375,-20.375,11.9375
1535265311416998,-16.625,-24.125,6.5625
1535265311437621,-9.4375,-25.5625,15.3125
1535265311454094,-28.5,-6.9375,14.1875
1535265311475153,-32.8125,-0.4375,18.6875
1535265311497715,-6.9375,-5.9375,13.1875
1535265311514296,4.9375,-4.5625,-4.625
1535265311534851,0.375,1.3125,-7.375
1535265311557413,10.0625,6.625,-8.0625
1535265311579933,7,7.1875,-3.8125
1535265311595013,1.5,7.75,-4.1875
1535265311617572,4,7.5,-0.625
1535265311649157,-1.125,5.9375,-2.125
1535265311672175,-2.1875,2.625,-0.5
1535265311687216,-10.875,2.5625,-0.6875
1535265311702255,-10.1875,3.25,-0.9375
1535265311716293,-4.25,-5.625,0.625
1535265311739497,-1.75,-3.9375,-2.8125
1535265311754895,-9.875,-3.4375,-0.3125
1535265311777455,-8.375,4.25,-5.1875
1535265311798053,-7.9375,-5.5625,0.6875
1535265311814554,-13,8.25,-4.25
1535265311837116,-14.9375,-2.75,2
1535265311867349,-2.75,-1.0625,1.625
1535265311873811,-5.25,3.875,-2.3125
1535265311894895,-11.8125,4.0625,-1.875
1535265311917480,-6.0625,6.25,-2.8125
1535265311933973,6.375,3.4375,-3.4375
1535265311955080,10.875,4.0625,-6.125
1535265311977640,12,2.5,-4.5625
1535265311994187,10.4375,-1.875,-2.375
1535265312015220,7.3125,-3.6875,-1.125
1535265312037747,4.0625,-4.375,0.5625
1535265312053790,0.875,-3.1875,-1.3125
1535265312074851,-1.6875,-1.25,-0.9375
1535265312097454,1.3125,0.8125,-1.3125
1535265312113992,1.625,1.375,-1.9375
1535265312135055,0.75,1.3125,-2.3125
1535265312157615,2.4375,1.125,-1
1535265312174153,5.625,-1,-0.125
1535265312195240,1.8125,-1.5,-0.5625
1535265312217768,-2.0625,-1.25,-0.6875
1535265312234206,1.5625,-2.125,0.3125
1535265312254867,5.8125,-2.0625,0.6875
1535265312295512,4.3125,-1.5,0.125
1535265312297016,6.125,-0.6875,-1.125
1535265312348005,8.0625,0.3125,-0.625
1535265312348780,3.25,-1.0625,-1.5
1535265312362235,2.5,-2,-2.1875
1535265312376727,1.75,-5.1875,-0.1875
1535265312398371,-2.875,-4.4375,0
1535265312429866,1.625,-10.9375,-0.4375
1535265312444911,0.25,-6.6875,-0.0625
1535265312466966,-1.5,5.625,-2.5
1535265312482008,6.5,-1.3125,-0.1875
1535265312511649,-8.25,1.5625,-1.1875
1535265312519146,1.8125,-5.875,0.25
1535265312549974,0.8125,-8.1875,-0.75
1535265312564793,9.25,-3.8125,-3.4375
1535265312578860,10,-3.9375,-2.6875
1535265312600821,-2.0625,-0.25,-3
1535265312617364,0.8125,11.3125,-6.25
1535265312639424,2.75,-1.625,-3.9375
1535265312660979,-7.375,6.4375,-6.5625
1535265312676662,-4.625,-5.875,0.4375
1535265312697688,-1.4375,-0.75,-3.125
1535265312714124,-10.625,4.1875,-3.5
1535265312751723,-5.25,-0.0625,-0.875
1535265312758281,-0.875,1.75,-2.125
1535265312790070,3.125,0.5625,-1.9375
1535265312804421,3.1875,0.125,-2.0625
1535265312825984,5.375,4.5,-2.5
1535265312842020,-3.6875,4.3125,-2.0625
1535265312856559,-3.25,5.6875,-4.625
1535265312879728,6.6875,-0.375,-4
1535265312902347,-2.25,-3.8125,-1.4375
1535265312916718,7.25,2.5,-3.9375
1535265312939918,0.375,2.5,-1.8125
1535265312962388,3.5,-4.8125,1.75
1535265312976378,2.875,-0.125,-1.4375
1535265312999438,-2.1875,4.0625,-3.0625
1535265313022501,-6.5,3.75,-2.5625
1535265313036734,-7.4375,2.0625,-1.625
1535265313067118,-4.5,2.1875,-0.8125
1535265313082162,0.25,3.125,-2
1535265313096698,3.625,2.8125,-3.375
1535265313119761,6.875,0.9375,-4.25
1535265313142318,3.4375,-3.5,-1.6875
1535265313156366,-0.8125,-2.625,-0.875
1535265313179418,5.1875,0.625,-3.75
1535265313201978,4.875,-2.6875,-0.625
1535265313216517,-0.5625,0.5,-1.6875
1535265313239579,-0.6875,-2.875,-1.3125
1535265313262140,-2.5,-0.5625,-0.4375
1535265313283200,-3.3125,-2.75,-0.125
1535265313299738,1.4375,-0.125,-0.625
1535265313337339,-0.125,0.5625,-0.25
1535265313366418,0.375,-0.5625,-0.5625
1535265313373477,0,4.0625,-3.125
1535265313389477,10.8125,-4.125,-1.9375
1535265313404522,0.75,-6,-0.5625
1535265313419224,-2.0625,3.875,-2.8125
1535265313442116,8.875,0.9375,-2.5625
1535265313463179,0.25,-6.375,0.1875
1535265313479865,-1.375,5.4375,-3.8125
1535265313502278,1.9375,-6.25,0.8125
1535265313523335,3.75,4.25,-3.75
1535265313539878,-3.0625,0.25,-0.625
1535265313562438,1.5,-5.25,0.9375
1535265313583548,5,-1.875,-3.375
1535265313599540,5.3125,2.25,-5.75
1535265313622600,5.0625,3.4375,-5.75
1535265313643152,5.75,3.8125,-4.5
1535265313659734,4.75,2.5625,-4.125
1535265313682257,4.5625,0.1875,-3.9375
1535265313703316,1.8125,-2.4375,-1.375
1535265313719855,-4.125,-2.8125,1.5
1535265313742175,-4.0625,1.5625,-0.6875
1535265313764475,3.9375,0.75,-2.625
1535265313779520,-3.3125,-1.9375,-0.25
1535265313802077,1.125,1.75,-1.9375
1535265313824827,-0.375,-2,-0.4375
1535265313845692,2.0625,0.625,-1.5
1535265313862233,-2.6875,-1.625,0.1875
1535265313884794,2.5,-1.0625,-2.25
1535265313898832,0.125,0.375,-1.5625
1535265313922406,-2.0625,-0.4375,-0.9375
1535265313944457,-1,-0.75,-0.25
1535265313958992,0.75,-0.3125,-0.25
1535265313982063,-0.25,-0.4375,-0.5625
1535265314004613,-1.375,-0.9375,-1.4375
1535265314019153,0,-0.1875,-0.6875
1535265314042215,0.125,0.0625,-0.75
1535265314064773,0,0.125,-1
1535265314078810,-0.5625,-0.875,-0.3125
1535265314102372,-1.375,-1.0625,-1.25
1535265314130991,0,-1,-0.9375
1535265314139109,3.3125,-1,-1.5625
1535265314162031,5.3125,-1.5625,-1.875
1535265314184647,5,-1.375,-2.9375
1535265314205649,7.75,0.5,-3.8125
1535265314222192,11.0625,0.0625,-5.0625
1535265314244751,10.5,-1.375,-4.4375
1535265314265807,6.125,1.375,-8
1535265314282415,8.25,2.1875,-6
1535265314329476,10.5625,3.6875,-4.8125
1535265314335993,7.8125,2.625,-3
1535265314341051,0.8125,0.8125,-0.625
1535265314357051,-1.5,-0.375,-1.375
1535265314378215,3.25,-4.875,-0.6875
1535265314394160,-2.625,2.1875,-1.625
1535265314417213,-3.125,-0.375,-0.1875
1535265314438268,-4.5625,-0.4375,0
1535265314454311,-4.375,-0.375,0.25
1535265314477375,-4.6875,-0.5,0.1875
1535265314498430,-5.75,-8.125,2.5
1535265314514111,-7.9375,-1.375,1.1875
1535265314537031,-3.875,-2.0625,-0.0625
1535265314558093,-5.0625,-2.4375,0.1875
1535265314574131,-7.375,-1.375,0.125
1535265314597191,-4.6875,0.375,-0.1875
1535265314618248,-1.1875,0.5625,-0.0625
1535265314633791,-3.625,-0.4375,0.25
1535265314657350,-6.375,-0.125,-0.125
1535265314678406,-2.6875,0.4375,-0.5
1535265314694448,0.4375,3.25,-3
1535265314717374,-2.3125,3.75,-1.8125
1535265314738567,-2.0625,-0.875,-0.9375
1535265314754107,-0.125,-0.3125,-1.625
1535265314784749,0.875,0,-1.4375
1535265314805746,1.75,-0.0625,-1.625
1535265314822408,2.0625,-0.4375,-1.75
1535265314844848,0.6875,-0.875,-1.625
1535265314865904,0.4375,-0.875,-1.4375
1535265314881947,0.125,-0.75,-1.5
1535265314904507,0.75,-0.5,-1.1875
1535265314926066,1.1875,-0.3125,-1.3125
1535265314942115,1.125,-0.0625,-1.375
1535265314965177,0.6875,-0.4375,-1.5625
1535265314985725,0.9375,-0.3125,-1.625
1535265315002268,1.125,-0.1875,-1.4375
1535265315024832,0,-0.5625,-1.375
1535265315046886,-0.8125,-0.625,-1.375
1535265315062216,0.1875,-0.4375,-1.4375
1535265315084794,1.125,-0.25,-1.4375
1535265315107112,2.25,0,-1.5
1535265315128101,2.5625,0.1875,-1.75
1535265315144647,1.5,-0.4375,-2
1535265315167386,2.1875,-0.625,-1.6875
1535265315181298,1.3125,-0.5625,-1.5
1535265315204857,0.8125,-0.5625,-1.5625
1535265315226912,1.0625,-0.1875,-1.8125
1535265315241583,1.75,-0.0625,-1.6875
1535265315264521,2,0.125,-1.375
1535265315287073,1.1875,0,-1.25
1535265315301613,0.375,-0.3125,-1.375
1535265315324673,0,-0.5,-1
1535265315347233,-0.3125,-0.375,-0.9375
1535265315361772,0.3125,-0.1875,-1.0625
1535265315384834,0.3125,-0.375,-1.3125
1535265315407408,1.0625,-0.625,-1.25
1535265315421439,1.4375,-0.3125,-1.5
1535265315444495,0.375,-0.25,-1.3125
1535265315467055,-0.3125,-0.5,-1.375
1535265315488623,-0.5625,-0.5,-1.125
1535265315504655,0,-0.4375,-1.3125
1535265315527283,0.9375,0.0625,-1.375
1535265315548268,0.75,0.0625,-1.3125
1535265315564824,-0.3125,-0.25,-1.0625
1535265315587372,-0.75,-0.5625,-1.3125
1535265315608427,0.125,-0.1875,-1.5
1535265315624470,0.9375,-0.125,-1.125
1535265315647031,0.75,-0.375,-1.375
1535265315668592,0,-0.75,-1.4375
1535265315684714,-0.25,-0.5,-1.4375
1535265315707196,0.1875,-0.25,-1.3125
1535265315728246,0.625,0.0625,-1.375
1535265315744789,0.375,-0.1875,-1.25
1535265315767355,0.125,-0.375,-1.5625
1535265315788407,0.1875,-0.5,-1.4375
1535265315804450,0.0625,-0.625,-1.0625
1535265315827024,-0.5625,-0.5625,-1.4375
1535265315848067,-0.5,-0.3125,-1.1875
1535265315864687,-0.9375,-0.1875,-0.9375
1535265315887672,-1.875,-0.4375,-0.875
1535265315908328,-2.6875,-0.3125,-1
1535265315924799,-3,-1.5,-0.375
1535265315947328,-3.6875,-2.25,-1.1875
1535265315969893,-3.375,-2,-1.125
1535265315984208,-3.0625,-0.875,-1.125
1535265316007104,-3.25,0.1875,-0.375
1535265316029552,-3.5625,1,0.0625
1535265316044588,-3.875,-0.125,0.0625
1535265316067152,-3.75,-1.25,-1.0625
1535265316089711,-0.625,-0.9375,-1.5
1535265316104248,0.125,-1.25,-0.6875
1535265316127311,-1.8125,-1.625,-0.4375
1535265316149868,-2.4375,-1.8125,-0.375
1535265316163907,-2.0625,-1.625,-1
1535265316186968,-0.8125,-1.125,-0.625
1535265316209530,-1.3125,-2.25,-0.375
1535265316224067,-1.5625,-1.6875,-0.8125
1535265316247127,-0.375,-1.625,-0.5
1535265316269884,0.1875,-1,-1.5
1535265316284227,1.25,-0.625,-1.625
1535265316307288,1.75,0.3125,-1.625
1535265316329847,0.75,0.6875,-1.125
1535265316343958,0.5,-0.0625,-1.3125
1535265316367021,1.1875,-0.375,-1.5625
1535265316389580,-0.5,0,-0.75
1535265316410737,-1.5625,0.1875,-0.25
1535265316427180,-1.8125,0.25,-0.6875
1535265316449858,-0.8125,0.9375,-1.375
1535265316470796,-0.875,0.5,-0.4375
1535265316487340,0,0.5,-0.5625
1535265316509902,-0.75,0.0625,-1.0625
1535265316531003,-2.0625,-0.3125,-1.75
1535265316546997,0.9375,-0.125,-1.9375
1535265316569557,2.375,-0.1875,-1.9375
1535265316590728,2.4375,-0.9375,-2.5625
1535265316607284,2.875,-0.8125,-2.75
1535265316630721,3.25,-0.5625,-2.8125
1535265316650778,3,-0.25,-3
1535265316667319,2.3125,-1.5,-2.375
1535265316689881,3.3125,-1.0625,-2.25
1535265316710940,2.625,0,-2.5625
1535265316726976,1.0625,-1.0625,-2.625
1535265316749536,1.3125,0.75,-1.8125
1535265316770592,3.5625,1.875,-1.125
1535265316787141,0.5625,-0.4375,-2.125
1535265316809697,-0.875,0.5625,-1.6875
1535265316830758,-0.1875,0.0625,-1.4375
1535265316847297,2.25,0.25,-0.1875
1535265316869862,3.3125,0.0625,-0.1875
1535265316890957,1.875,0,-1.0625
1535265316906956,-2.4375,-0.6875,-1.5
1535265316929939,-1.1875,-2.4375,-1.75
1535265316952198,1.6875,-2.1875,-2.25
1535265316967127,3.5625,-1.375,-3.25
1535265316989675,4.6875,0.9375,-3
1535265317012236,1.75,-1.375,-1.9375
1535265317026273,-1.1875,-1.1875,-2.8125
1535265317049836,-0.5,-0.375,-1.3125
1535265317071923,1.1875,0.125,-1.0625
1535265317086434,0.6875,0.75,-1.1875
1535265317109500,-0.375,0.25,-0.9375
1535265317139575,-0.0625,0.0625,-1.125
1535265317153222,0.1875,0.875,-1.5625
1535265317169762,-1,-0.3125,-0.8125
1535265317192244,-0.9375,-0.0625,0.375
1535265317206754,-0.125,-0.5625,-0.3125
1535265317229816,-1.75,-0.0625,-0.875
1535265317252163,-2.5,-0.625,-1.0625
1535265317266464,-0.875,-0.875,-0.875
1535265317289473,0,-1.0625,-0.8125
1535265317312251,0.0625,-1.4375,-1.125
1535265317326576,0.3125,-0.75,-1.625
1535265317349638,-2.75,0.125,-2.3125
1535265317372195,-2.625,-2.625,-0.5
1535265317393343,0,-1.6875,-1.375
1535265317409793,-0.5625,0.0625,-0.6875
1535265317432352,-1.4375,-0.125,-0.8125
1535265317462433,-2.4375,-0.25,-1.4375
1535265317469588,-1.4375,0.3125,-1.8125
1535265317492132,1.3125,-0.0625,-0.6875
1535265317497576,0.125,-0.5,-1.4375
1535265317515626,-0.75,-0.6875,-1.4375
1535265317535129,-0.125,-0.6875,-1.1875
1535265317557688,0.75,-0.4375,-1.0625
1535265317580249,1.875,0,-1.0625
1535265317595382,0.8125,0.125,-0.8125
1535265317617382,0.5,-0.1875,-1.0625
1535265317635393,0.0625,-0.9375,-0.5
1535265317654944,-1.125,-0.5,-1.1875
1535265317677506,-0.6875,-1.5625,-0.6875
1535265317695554,1.1875,-1.1875,-1.4375
1535265317715213,1,-0.75,-1.6875
1535265317740722,-0.375,-0.5625,-1.875
1535265317755738,-2.625,-0.3125,-2.1875
1535265317775265,-1.1875,-0.5625,-1.375
1535265317797349,-3.4375,-0.75,-1.5625
1535265317815488,-4.3125,1,-2.125
1535265317834924,-1.8125,-0.375,-0.6875
1535265317857496,-2.625,0.8125,-2
1535265317880092,-2.375,0.5,-1
1535265317895086,1.1875,0.875,-1.3125
1535265317917646,-0.8125,0.75,-1.1875
1535265317940253,-1.375,0,-1
1535265317955316,-0.9375,0.4375,-0.4375
1535265317977894,1.625,0,-0.4375
1535265318000365,0.5,1.125,-0.6875
1535265318015412,0.25,-0.375,-1
1535265318037969,-1.4375,-1.875,-1.375
1535265318060025,-0.5625,-1.6875,-1.6875
1535265318075064,-0.9375,-0.1875,-1.1875
1535265318097624,-1.75,-0.1875,-2.5625
1535265318120182,0.25,-0.875,-3.125
1535265318135222,0.4375,-2.5625,-3.6875
1535265318157324,-0.1875,-0.75,-2.8125
1535265318179982,2.375,0.25,-2.375
1535265318194922,0.375,1.25,-3.25
1535265318217483,0.0625,1.875,-2.3125
1535265318243011,1.1875,2.125,-0.4375
1535265318255102,-0.625,0.9375,-0.1875
1535265318277645,-1.875,-0.875,-0.1875
1535265318300163,-0.6875,0.6875,-0.1875
1535265318315204,2.5625,-0.375,0.75
1535265318338766,3.4375,-1.8125,0.25
1535265318359821,2.125,-1.9375,-1.125
1535265318374861,-0.125,-2.375,-3.1875
1535265318397925,1.6875,1.8125,-4.75
1535265318419986,1.3125,-1.375,-1.5625
1535265318435023,0.25,-1.8125,-1.5
1535265318457586,-0.4375,0.875,-1.25
1535265318480648,1.0625,1,0.5625
1535265318496685,-2.6875,0,-0.5625
1535265318517740,-4,1.25,-0.875
1535265318540181,-2.875,0.1875,-1.5625
1535265318556556,-1.375,0.75,-0.5625
1535265318577402,-0.9375,-0.875,0.3125
1535265318600045,2.25,-1,0
1535265318616503,-1,-0.375,-1.125
1535265318637672,-2.8125,-2.625,-0.3125
1535265318660152,-1.125,-2.625,-1.25
1535265318676663,1.6875,-0.0625,-1.4375
1535265318697720,3,-0.5,-2.5625
1535265318720280,0.3125,1,-2.75
1535265318736322,1.3125,-1.5625,-0.9375
1535265318757378,-0.375,0,-1.5
1535265318779948,1.25,1.75,-0.875
1535265318796485,1.4375,0.875,0.5
1535265318817544,-3.375,0.75,-1.9375
1535265318840105,-2.1875,-0.1875,-1
1535265318858146,0.9375,0.4375,-1.125
1535265318877699,2.1875,-1.5,-1.0625
1535265318900257,3.8125,-1.4375,-1.5
1535265318917806,2.25,0.75,-2.625
1535265318938862,1,-1.6875,-1.8125
1535265318960023,1.125,-1.6875,-2.3125
1535265318977965,1,-1.5,-2.8125
1535265318997537,1.25,0.875,-2.375
1535265319020143,3.75,-1.25,-1.0625
1535265319038146,0.875,-0.8125,-2.25
1535265319057709,2.25,-0.3125,-1.3125
1535265319080259,2.3125,0.5,-0.75
1535265319097805,0,0.1875,-1.5625
1535265319117357,-0.5625,0,-0.875
1535265319140085,1.25,-0.75,0
1535265319157966,0.5,-1.375,-0.625
1535265319177633,2.375,-1.875,-0.5625
1535265319200153,5.0625,-1.1875,-0.5
1535265319218199,3.8125,-0.5,-1.25
1535265319237747,0.8125,-1,-1.6875
1535265319262846,0.8125,0.25,-1.875
1535265319277899,1.625,-0.125,-2.25
1535265319297541,1.25,-0.4375,-2.125
1535265319320042,2.5625,-0.4375,-0.875
1535265319338047,3.8125,-0.75,-0.75
1535265319357601,4.125,-1.0625,-0.9375
1535265319380168,3.875,-0.25,-1.125
1535265319405224,0,-0.6875,-1.3125
1535265319419263,-0.625,-1.125,-1.4375
1535265319439820,1.375,-1.1875,-1.0625
1535265319458030,1,-1.1875,-1.8125
1535265319478932,0.6875,-0.9375,-1.5625
1535265319499997,-0.0625,-0.1875,-1.1875
1535265319518044,-1.625,-0.25,-1.625
1535265319539101,-1.5625,0.25,-1.875
1535265319560656,-0.8125,0.1875,-1.375
1535265319578204,-0.4375,-1.25,-0.9375
1535265319599427,0.375,-0.5625,-1.0625
1535265319619816,-0.375,-0.125,-0.625
1535265319637863,-1,0,-0.8125
1535265319658917,-1.625,0.1875,-1.125
1535265319683083,-2.8125,-0.875,-1.3125
1535265319698026,-1.75,-1.125,-1.0625
1535265319726649,-1.5625,-0.4375,-1.25
1535265319740134,-1.375,-0.3125,-1.5
1535265319758181,-0.9375,-0.375,-1
1535265319780310,0.6875,-0.625,-0.6875
1535265319800323,0.9375,-0.8125,-0.875
1535265319817869,-0.1875,-0.25,-0.75
1535265319840452,-0.5625,-0.5,-0.8125
1535265319860020,-1.4375,-0.5625,-1.25
1535265319878121,-0.875,-0.5625,-0.8125
1535265319900597,-0.25,-0.3125,-1.375
1535265319920145,-0.4375,-0.875,-1.4375
1535265319938190,-1.6875,-0.1875,-1.8125
1535265319960752,-0.625,-0.5625,-1.1875
1535265319980303,0.9375,-0.3125,-1.5
1535265320005369,0.5,-0.5,-1.5625
1535265320020410,-0.4375,-1.25,-1.5625
1535265320047513,0.875,-1.1875,-1.1875
1535265320057005,2.75,-0.25,-0.9375
1535265320079566,2.8125,-0.3125,-1.375
1535265320100729,0.8125,-0.3125,-1.75
1535265320117216,-0.75,-0.5,-1.8125
1535265320139727,-1.8125,-1,-1.375
1535265320160783,-1,-0.4375,-1.25
1535265320177324,-1.6875,-0.5625,-1.25
1535265320199890,-1.0625,-0.4375,-1.5
1535265320220571,0.1875,0,-1.5625
1535265320236989,-0.5625,-0.6875,-1.625
1535265320259690,-0.125,-0.1875,-1.3125
1535265320280706,1.9375,-0.375,-0.5
1535265320297313,2.8125,0,0
1535265320327224,1.9375,-0.9375,-0.25
1535265320340864,2.375,0,-0.9375
1535265320357307,0.375,-0.5,-0.875
1535265320379864,0.5,-0.6875,-0.6875
1535265320400923,1.9375,-0.625,-0.5
1535265320416985,0.875,-0.625,-1
1535265320439522,0.625,-0.3125,-0.8125
1535265320461097,0.0625,-0.6875,-1.25
1535265320477156,-0.5625,-0.25,-1.1875
1535265320499714,0.4375,-0.125,-0.625
1535265320520766,0.375,0,-0.75
1535265320537285,-0.5,-0.5,-1.0625
1535265320559856,-0.375,-1,-1.6875
1535265320580903,1.0625,-0.6875,-2
1535265320604464,1.4375,-0.3125,-1.125
1535265320619604,1.6875,-0.25,-0.9375
1535265320640558,-0.25,-0.6875,-1.3125
1535265320657276,-0.0625,-0.6875,-1.125
1535265320679903,-0.0625,-0.6875,-1.875
1535265320702224,2.25,-0.1875,-1.25
1535265320717264,0.8125,-0.1875,-1.8125
1535265320739823,0.8125,-0.5,-1.3125
1535265320762151,0.4375,-0.8125,-1.0625
1535265320777274,0.125,-0.625,-1.75
1535265320799754,-0.0625,-0.25,-1.4375
1535265320822313,-0.0625,-0.1875,-0.9375
1535265320837352,0,-0.0625,-1
1535265320859553,-0.9375,-0.5625,-1.125
1535265320882507,0.3125,-0.125,-1.1875
1535265320896509,1.125,0.0625,-0.625
1535265320919574,-0.0625,-0.4375,-0.6875
1535265320942132,-2.25,-1.1875,-0.6875
1535265320956672,-2.1875,-1.1875,-0.625
1535265320979732,-1.25,-0.5625,-1
1535265321002291,-0.6875,-0.3125,-0.9375
1535265321016331,-0.3125,-0.25,-1.25
1535265321039974,-0.75,-0.3125,-1.25
1535265321069551,-0.875,-0.75,-1
1535265321076646,-0.6875,-0.4375,-1.4375
1535265321099762,-0.125,-0.375,-1.0625
1535265321122190,-0.75,-0.375,-1.0625
1535265321136731,-0.4375,-0.1875,-0.5625
1535265321160292,-0.8125,-0.25,-0.75
1535265321182354,-0.9375,-0.4375,-0.9375
1535265321203441,-0.5,-0.25,-1.3125
1535265321219527,-0.0625,-0.375,-0.9375
1535265321242086,0.125,-0.0625,-1
1535265321263143,-0.75,-0.4375,-1.1875
1535265321279686,-1.25,-0.6875,-1.5625
1535265321302245,0.125,-0.3125,-1
1535265321323366,0.8125,-0.0625,-0.9375
1535265321347370,-0.3125,-0.3125,-1.3125
1535265321362416,-0.375,-0.5,-1.375
1535265321383542,0.125,-0.6875,-1.4375
1535265321399658,0.1875,-0.625,-1.3125
1535265321422401,0.3125,-0.4375,-1.1875
1535265321443285,0,-0.25,-1.375
1535265321459844,0.5,-0.1875,-1.1875
1535265321482306,0.5625,-0.4375,-1.375
1535265321503279,-0.375,-0.4375,-1.375
1535265321519830,-0.25,-0.375,-1.1875
1535265321542382,0.875,-0.0625,-0.6875
1535265321562945,0.25,-0.125,-1.375
1535265321579750,-0.4375,-0.75,-1.1875
1535265321602044,-0.25,-0.625,-1.4375
1535265321623097,0,-0.375,-1.125
1535265321639918,-0.5,-0.5,-1.6875
1535265321662337,0.25,-0.3125,-1.1875
1535265321684868,-0.375,-0.375,-1.375
1535265321699404,-0.75,-0.625,-0.875
1535265321721988,-0.875,-0.8125,-1.25
1535265321744804,0,-0.375,-1.5
1535265321759066,0.3125,-0.1875,-1.125
1535265321782128,-0.5625,-0.1875,-1.25
1535265321804699,-0.375,-0.0625,-1.0625
1535265321818751,-0.0625,-0.1875,-1.3125
1535265321842322,-0.625,-0.625,-1.1875
1535265321864880,-1.0625,-0.8125,-1.1875
1535265321879155,-0.5,-0.125,-1
1535265321901978,-0.6875,-0.3125,-1.3125
1535265321924537,0.0625,0.1875,-1.1875
1535265321945837,-0.625,-0.25,-1
1535265321962325,-0.625,-0.875,-1.25
1535265321984698,0,-0.6875,-0.9375
1535265321999241,-0.1875,-0.8125,-1.4375
1535265322022299,1.0625,0,-1.6875
1535265322044859,0.4375,-0.5,-1.4375
1535265322058899,0.5625,-0.875,-1.5625
1535265322081956,0.4375,-1.3125,-1.25
1535265322104517,-0.125,-1.375,-1.1875
1535265322119055,0,-0.8125,-1.5625
1535265322142126,0.8125,-0.6875,-0.8125
1535265322164874,1.1875,-0.375,-1.4375
1535265322185737,0.6875,-0.0625,-1.0625
1535265322202276,0.9375,-0.3125,-0.5
1535265322224836,0.125,-1.125,-0.6875
1535265322245899,-0.1875,-1.1875,-1.125
1535265322269455,1.625,-1.1875,-0.5625
1535265322284599,2.25,-0.5625,-1.625
1535265322305553,0.5625,0,-1.3125
1535265322322133,0.625,-1.0625,-0.6875
1535265322344655,0.375,-0.5,-0.75
1535265322365717,0.5,-0.75,-1.1875
1535265322382259,-0.125,-0.625,-1.4375
1535265322404821,0,-0.4375,-1.5
1535265322425908,0.3125,0,-1.4375
1535265322442246,0.5625,0.125,-1.375
1535265322464481,1.5,0.0625,-1
1535265322485530,0.1875,-0.6875,-1.5
1535265322502075,-0.8125,-0.9375,-0.9375
1535265322524633,-0.6875,-1.25,-1.3125
1535265322545694,-0.625,-0.9375,-1.5625
1535265322562237,0.375,-0.5,-1.1875
1535265322584794,0.1875,0.125,-1.4375
1535265322607360,0.1875,0.25,-1.125
1535265322622099,-1.0625,1.6875,-0.625
1535265322644503,-1.75,0.75,-0.6875
1535265322667063,-3.5,-0.6875,-0.1875
1535265322682372,-3.1875,-1.5625,-1.375
1535265322704756,-2,-1.0625,-1.8125
1535265322734745,-1.1875,0,-2.1875
1535265322741301,1.5625,0.0625,-1.5
1535265322764693,1.4375,-0.5,-1.375
1535265322787394,0,-1.625,-1.125
1535265322801425,-2,-2.75,-0.8125
1535265322824484,-5.75,-0.625,-1.5
1535265322847246,-2.8125,0.8125,-1.0625
1535265322861582,-1.0625,2.0625,-0.9375
1535265322884661,-0.25,0.9375,-0.125
1535265322907259,-1.8125,-0.875,-0.4375
1535265322921239,-1.125,-2.5,-1.5
1535265322944804,0.375,-2.25,-2.1875
1535265322966861,2,-1.4375,-2.3125
1535265322981400,4.25,-0.6875,-1.75
1535265323010529,2.6875,-0.625,-1.75
1535265323027056,0.375,-0.9375,-1.5625
1535265323041563,-0.75,-0.9375,-1.125
1535265323064622,-1.25,-0.75,-1.3125
1535265323087183,-0.8125,-0.5,-1.0625
1535265323108242,0.125,-0.5,-0.9375
1535265323124853,0.5625,0,-1.25
1535265323147342,0.9375,0.5625,-1.1875
1535265323168403,-0.1875,0,-0.625
1535265323184440,-0.75,-0.5625,-0.6875
1535265323207002,-1.1875,-1.0625,-1.3125
1535265323228057,-0.3125,-0.625,-1.6875
1535265323244600,0.375,-0.1875,-1.4375
1535265323267165,0.375,0.3125,-1.3125
1535265323288216,0.25,0.125,-1.25
1535265323304761,-0.0625,-0.1875,-1.6875
1535265323327321,-0.6875,-0.875,-1.9375
1535265323348469,-0.25,-0.875,-1.875
1535265323364420,0.5625,-0.25,-1.5625
1535265323386979,1.125,-0.25,-1.5
1535265323408040,-0.125,-0.5625,-1.5625
1535265323424592,-0.25,-0.9375,-1.875
1535265323447154,0.5,-0.6875,-1.875
1535265323468198,1.5625,-0.1875,-1.5625
1535265323484756,1.125,0.25,-1.0625
1535265323507314,-0.4375,-0.5,-1.0625
1535265323528366,-0.125,-0.375,-1.5625
1535265323544902,0.4375,0.125,-1.1875
1535265323566962,-0.375,0.875,-0.4375
1535265323589518,-3.125,0.25,0
1535265323612245,-3.25,-0.125,-0.3125
1535265323627120,-2.5625,-0.375,-0.625
1535265323651187,-1.625,-0.3125,-0.75
1535265323664858,-1.875,-0.0625,-0.6875
1535265323687278,-2.625,-0.3125,-1.125
1535265323709838,-2.125,-0.375,-1.125
1535265323724253,-0.375,-0.0625,-0.625
1535265323746937,-0.9375,-0.625,-0.8125
1535265323770106,-1.4375,-0.625,-1.125
1535265323784144,-0.875,-0.125,-1.1875
1535265323807255,-0.4375,0.5625,-1.25
1535265323829766,-0.5,0.4375,-0.6875
1535265323843807,-1.9375,0.1875,-0.6875
1535265323867364,-2.375,-0.3125,-0.75
1535265323889927,-1.3125,-0.5,-0.75
1535265323904117,-0.4375,-0.5625,-1.125
1535265323927025,-0.3125,-0.75,-1.3125
1535265323949583,1.125,-0.1875,-1.6875
1535265323964215,0.5625,-0.625,-1.8125
1535265323987183,0.8125,-0.75,-1.5625
1535265324009746,-0.25,-0.6875,-1.25
1535265324024282,-0.9375,-0.5,-1.125
1535265324047343,-1.1875,-0.3125,-1.0625
1535265324069773,-0.875,-0.5,-1.375
1535265324090831,0.1875,-0.5625,-1.4375
1535265324107374,0.875,-0.1875,-1.8125
1535265324129933,0.5,-0.25,-1.75
1535265324150987,0.625,-0.3125,-1.4375
1535265324167676,0.0625,-0.5625,-1.0625
1535265324189590,0,-0.875,-1.25
1535265324210653,0.9375,-0.5625,-1.3125
1535265324227191,1.75,-0.3125,-1.625
1535265324249833,1.9375,-0.25,-1.5
1535265324270806,1.1875,-0.5625,-1.6875
1535265324287350,1.0625,-0.375,-1.6875
1535265324309913,0.3125,-0.8125,-1.75
1535265324330971,0.75,-0.4375,-1.4375
1535265324347009,1.375,-0.125,-1.1875
1535265324369749,0.8125,-0.125,-1.5
1535265324398144,1.0625,-0.1875,-1.5
1535265324407168,1.625,-0.25,-1.75
1535265324429796,1.5,-0.5,-1.4375
1535265324452353,1.0625,-0.75,-1.6875
1535265324467060,0.875,-0.5625,-1.875
1535265324489630,1.6875,-0.3125,-1.6875
1535265324512018,1.625,-0.1875,-1.625
1535265324527194,0.9375,-0.3125,-1.5625
1535265324549614,0.1875,-0.25,-1.625
1535265324572173,0.9375,-0.4375,-1.6875
1535265324587211,2.1875,-0.25,-1.75
1535265324609774,2.875,0,-1.75
1535265324632332,2.375,0.0625,-1.6875
1535265324646372,0.8125,0,-1.4375
1535265324677292,-0.5,-0.375,-1.5625
1535265324692169,-1.125,-1,-1.125
1535265324706531,-1.5625,-0.875,-1.3125
1535265324729601,-1,-0.0625,-1.4375
1535265324752165,-1.25,0.3125,-0.875
1535265324766692,-1.25,0.1875,-0.5625
1535265324789754,-1.875,0.3125,-0.375
1535265324812315,-2.125,-0.0625,-0.625
1535265324826352,-1.8125,-0.25,-0.9375
1535265324849912,-1.0625,-0.5,-1
1535265324872533,-0.875,-0.8125,-1.125
1535265324886510,-1.0625,-0.6875,-0.8125
1535265324909573,-2.0625,-0.625,-0.625
1535265324932134,-2.8125,-0.375,-0.6875
1535265324946672,-3.3125,-0.3125,-0.4375
1535265324969733,-2.5625,-0.0625,-0.5
1535265324991803,-2.0625,0.0625,-0.4375
1535265325013695,-2.5,0,-0.5625
1535265325029891,-2.9375,0.0625,-0.5
1535265325052452,-3.375,0,-0.4375
1535265325073010,-3.6875,-0.5,-0.75
1535265325089551,-4.25,0,-0.5625
1535265325112111,-3.9375,-0.1875,-0.3125
1535265325133165,-4.625,-0.1875,-0.4375
1535265325149713,-4.875,-0.375,-0.3125
1535265325172273,-3.4375,0,-0.3125
1535265325193384,-3.8125,-0.1875,-0.4375
1535265325209871,-2.6875,-0.375,-0.375
1535265325232166,-2,-1.25,-0.5625
1535265325252985,-0.8125,-1.125,-0.9375
1535265325269531,-0.9375,-0.5625,-1
1535265325292089,-0.4375,-0.8125,-1
1535265325313145,0.0625,-0.625,-1.5625
1535265325329807,1.375,-0.6875,-1.6875
1535265325352249,2.1875,-0.375,-1.5625
1535265325373386,2.5625,-0.3125,-1.5
1535265325389848,2.25,-0.4375,-1.75
1535265325411912,2.6875,-0.5625,-2
1535265325433465,3.125,-0.625,-1.9375
1535265325449509,2.875,-0.4375,-1.875
1535265325472068,1.9375,-0.125,-1.875
1535265325494629,2.0625,-0.4375,-1.4375
1535265325509668,1.5625,-0.875,-2
1535265325532230,1.375,-1.375,-2.1875
1535265325554886,2.5625,-1.125,-2
1535265325569833,2.375,-0.625,-1.9375
1535265325592387,2.125,-0.25,-2.125
1535265325614457,1.4375,-0.375,-1.875
1535265325628996,1.1875,-0.6875,-1.8125
1535265325652055,1.125,-0.3125,-1.8125
1535265325657560,0.4375,-0.1875,-1.8125
1535265325680125,0.125,0,-1.5625
1535265325696665,0,0.125,-1.1875
1535265325717843,0.3125,0.0625,-1.4375
1535265325740284,0.375,0.0625,-1.4375
1535265325756323,0.75,-0.1875,-1.375
1535265325778005,0.5,-0.5625,-0.9375
1535265325800067,-0.375,-0.5,-1.375
1535265325816483,0.0625,-0.375,-1.5
1535265325837652,0.9375,-0.3125,-1.625
1535265325860139,0.6875,-0.5625,-1.375
1535265325876647,0.4375,-0.6875,-1.25
1535265325897721,-0.1875,-0.4375,-1.375
1535265325920259,-0.3125,-0.1875,-1.5
1535265325936303,0,0.1875,-1.25
1535265325957357,-0.25,-0.125,-1.3125
1535265325979917,-0.4375,-0.125,-1.375
1535265325996463,0.5625,-0.375,-0.9375
1535265326019135,0.125,-0.6875,-1.1875
1535265326040079,0.5,-0.375,-1.25
1535265326056670,-0.5625,-0.5,-1.3125
1535265326077688,-0.5625,-0.25,-1.3125
1535265326100240,-0.125,-0.125,-0.9375
1535265326116792,-0.125,-0.375,-1.0625
1535265326137844,-0.75,-0.5,-1.125
1535265326160397,-0.75,-0.5,-1.125
1535265326176446,0.0625,-0.25,-0.9375
1535265326197569,0.8125,0,-0.5
1535265326220177,0.0625,-1.25,-0.6875
1535265326236672,-1.3125,-1.4375,-1.25
1535265326257731,-0.75,-0.5625,-1.625
1535265326279786,0.6875,-0.1875,-1.4375
1535265326296643,0.8125,0.125,-1.0625
1535265326317390,0.125,-0.125,-0.875
1535265326340002,-1.1875,-0.75,-0.875
1535265326358042,-1.1875,-0.5,-1.0625
1535265326377658,-0.6875,-0.25,-0.5625
1535265326400158,-0.375,-0.0625,-0.6875
1535265326418245,-0.875,-0.5625,-0.6875
1535265326437801,-1.4375,-0.625,-1.5
1535265326460321,-1.6875,-0.625,-1.4375
1535265326477863,-0.8125,-0.6875,-1.25
1535265326497423,-1.3125,-0.4375,-1.5625
1535265326519975,-1,-0.3125,-1.25
1535265326538222,-2.125,-0.5625,-1.375
1535265326557574,-2.1875,-0.9375,-1.3125
1535265326580133,-1.375,-0.625,-1.1875
1535265326598183,-0.875,-0.375,-1.3125
1535265326617862,-0.6875,-0.5,-1.25
1535265326640372,-0.9375,-0.5,-1.0625
1535265326665362,-1.125,-0.5625,-0.9375
1535265326677625,-1.5,-0.875,-0.9375
1535265326700028,-0.625,-0.75,-1.125
1535265326718001,0,-0.5,-1
1535265326737554,-0.25,-0.75,-1.25
1535265326760115,0.375,-0.4375,-1.375
1535265326778162,0.8125,-0.375,-1.4375
1535265326797711,1.0625,-0.1875,-1.3125
1535265326820280,0.1875,-0.5625,-1.0625
1535265326837992,-0.625,-0.875,-1.3125
1535265326857418,-0.125,-0.5,-1.5625
1535265326879965,0.5,-0.375,-1.5
1535265326897980,0.375,-0.0625,-1.375
1535265326917640,0.0625,0.0625,-1.3125
1535265326943136,0,-0.1875,-1.1875
1535265326958139,0,-0.5625,-1.4375
1535265326977690,0.0625,-0.6875,-1.625
1535265326999798,0.75,-0.3125,-1.5
1535265327017895,1.0625,0.125,-1.5
1535265327038863,0.375,-0.0625,-1.4375
1535265327060416,-0.125,-0.375,-1.125
1535265327077960,-0.3125,-0.5,-1.0625
1535265327099093,-0.4375,-0.625,-1.4375
1535265327120087,-0.3125,-0.125,-1.4375
1535265327138119,-0.4375,0,-1.375
1535265327159175,-0.25,-0.0625,-1.25
1535265327180231,-0.5625,-0.4375,-1.3125
1535265327198280,0.25,-0.25,-1.3125
1535265327218914,0.5625,-0.3125,-0.9375
1535265327239970,0.9375,0.6875,-0.3125
1535265327265455,-0.6875,1.4375,-0.75
1535265327278992,-2.1875,0.4375,-0.875
1535265327300049,-0.5625,-0.1875,-0.25
1535265327318097,0.4375,-0.1875,-0.625
1535265327340657,0.5,0.0625,-1
1535265327360221,0.5625,0.75,-1.0625
1535265327377843,0.0625,-0.5625,-1
1535265327408492,0,-1.4375,-1.25
1535265327420071,1.75,-1.125,-1.375
1535265327437933,1.5,-0.625,-1.8125
1535265327460492,0.6875,-0.4375,-1.75
1535265327480088,1.1875,-0.125,-1.75
1535265327498640,1.5625,-0.4375,-1.8125
1535265327520798,0.9375,-1,-1.875
1535265327540282,0.75,-1.1875,-2.0625
1535265327557752,0.5625,-1.0625,-2.1875
1535265327580413,1.125,-0.6875,-1.625
1535265327600184,1.3125,-0.1875,-1.875
1535265327617959,1.375,-0.3125,-1.6875
1535265327640518,-0.0625,-0.9375,-1.75
1535265327660072,-1.1875,-1.4375,-1.625
1535265327678118,-0.625,-0.75,-1.25
1535265327700176,-0.4375,-0.1875,-1.375
1535265327727752,-0.25,0.0625,-1.3125
1535265327737808,-0.1875,0.0625,-1.4375
1535265327760367,-0.3125,-0.25,-1.25
1535265327780188,-0.875,-0.5,-1
1535265327798011,-0.6875,-0.5625,-1.0625
1535265327820569,-0.3125,-0.625,-1.1875
1535265327840189,-0.9375,-0.25,-1.1875
1535265327858170,-0.3125,-0.25,-1.1875
1535265327880300,0,-0.0625,-1.125
1535265327900283,0,-0.1875,-1.125
1535265327917828,-0.625,-0.4375,-1.1875
1535265327940421,-1.125,-0.5625,-0.9375
1535265327962948,-0.5625,-0.6875,-0.75
1535265327977989,0.375,-0.3125,-1.1875
1535265328008068,0.375,-0.3125,-1.375
1535265328021605,0.5625,-0.1875,-1.5625
1535265328038148,0.25,0,-1.375
1535265328060207,-0.25,-0.3125,-1.1875
1535265328081263,-0.625,-0.5,-1.0625
1535265328097806,-1.0625,-0.75,-1.1875
1535265328120367,-0.5,-0.75,-1.3125
1535265328141425,0.125,-0.375,-1.4375
1535265328157967,0.8125,-0.5,-1.5
1535265328180584,0.5625,-0.5,-1.4375
1535265328201584,0.25,-0.625,-1.5625
1535265328216624,0.3125,-0.6875,-1.5
1535265328240738,-0.1875,-0.6875,-1.375
1535265328262315,-0.25,-0.75,-1.3125
1535265328283304,-0.4375,-0.5,-1.1875
1535265328299845,-0.5,-0.1875,-1.1875
1535265328322407,-1.125,-0.375,-1.1875
1535265328342958,-1.25,-0.1875,-1.1875
1535265328359510,-1.125,-0.5625,-1.1875
1535265328382067,-1.5625,-0.6875,-1.375
1535265328403256,-0.875,-0.4375,-1.0625
1535265328419817,-1.0625,-0.5625,-0.875
1535265328442377,-1.5625,-0.875,-0.9375
1535265328456415,-1.75,-0.6875,-1.3125
1535265328479816,-1.0625,-0.375,-1.125
1535265328502035,-0.625,-0.1875,-0.5625
1535265328516740,-1.0625,-0.3125,-0.6875
1535265328539634,-1.6875,-0.625,-0.9375
1535265328562195,-1.1875,-0.875,-1
1535265328576734,-0.625,-0.8125,-1
1535265328605816,0.375,-0.5625,-1.375
1535265328622357,0.5,-0.5,-1.3125
1535265328636393,0.25,-0.5,-1.375
1535265328659957,-0.625,-0.8125,-1.3125
1535265328682100,-1.125,-0.75,-1.4375
1535265328696553,-0.5625,-0.5,-1
1535265328719628,-0.875,-0.4375,-1.25
1535265328742172,-0.625,-0.125,-1.125
1535265328763332,-0.25,0.125,-0.9375
1535265328779778,-0.5625,0,-1.125
1535265328802347,0.0625,-0.3125,-1
1535265328822998,0.0625,-0.4375,-1.375
1535265328839760,0.25,-0.25,-1.375
1535265328862259,-0.5,-0.5625,-1.1875
1535265328883315,0,-0.25,-1.3125
1535265328899887,0.1875,-0.3125,-1.4375
1535265328922420,0.5,0,-1.4375
1535265328943478,-0.625,-0.25,-1.25
1535265328959650,-0.6875,-0.75,-1.4375
1535265328982078,-0.5625,-0.5625,-1.125
1535265329003138,0.375,-0.625,-1.8125
1535265329019679,0.6875,0,-1.4375
1535265329042371,1,0.125,-1.3125
1535265329063292,-0.125,-0.5,-1.75
1535265329080338,0.125,-0.0625,-1.1875
1535265329101944,0.75,-0.0625,-1.375
1535265329123021,0.5,-0.0625,-1.0625
1535265329139494,-0.3125,-0.6875,-1.0625
1535265329162056,-0.3125,-1.1875,-1.4375
1535265329183112,0.3125,-0.6875,-1.25
1535265329207390,1,0,-1
1535265329222220,0.75,0.1875,-1
1535265329244777,0.125,-0.4375,-1.5
1535265329259896,-0.3125,-1.25,-1.375
1535265329282268,-0.25,-0.9375,-1.5
1535265329304573,-0.3125,-0.25,-1.3125
1535265329319627,-0.25,-0.125,-1.125
1535265329342289,0,0.0625,-1.125
1535265329364746,0.1875,0,-1.0625
1535265329378822,-0.25,-0.8125,-1.1875
1535265329401845,-0.375,-0.5625,-1.9375
1535265329424736,0,-0.1875,-1.25
1535265329438955,0.125,-0.375,-1.1875
1535265329462444,0.375,-1.1875,-2.125
1535265329484570,1.25,-1.3125,-2.625
1535265329499178,3,-0.9375,-2.375
1535265329522302,3.6875,-0.25,-2.5
1535265329544726,3.625,0.25,-2.4375
1535265329558764,3.125,-0.1875,-1.8125
1535265329582329,1.75,-1,-1.625
1535265329604386,0.375,-1.625,-1.6875
1535265329618934,0.8125,-1.3125,-1.5625
1535265329641986,1.6875,-0.1875,-1.5
1535265329664552,2.5625,1,-1.1875
1535265329679084,0.3125,0.875,-0.8125
1535265329702314,-1.1875,0.3125,-0.5
1535265329724704,-2.875,-0.5,0
1535265329745761,-3.25,-1.1875,-0.5
1535265329762808,-3,-0.625,-0.5625
1535265329784864,-2.375,0.25,-0.1875
1535265329805924,-3,0.125,-0.0625
1535265329821971,-2.5625,-0.25,-0.3125
1535265329844523,-2.25,-0.6875,-0.8125
1535265329865684,-1.8125,-0.3125,-0.8125
1535265329882124,-1.6875,0.125,-0.375
1535265329904683,-2.375,-0.0625,-0.125
1535265329925773,-2.3125,-0.0625,-0.5
1535265329941791,-2.0625,-0.25,-0.6875
1535265329964342,-1.3125,-0.125,-1.375
1535265329985905,-0.375,0,-1.25
1535265330001944,0.0625,-0.0625,-1.125
1535265330024667,-0.5,0,-1.0625
1535265330045671,-0.3125,0.0625,-1.0625
1535265330062210,-0.625,-0.0625,-1.0625
1535265330084790,-0.1875,-0.0625,-1.3125
1535265330105766,-0.125,-0.25,-1.375
1535265330122265,-0.1875,-0.25,-1.4375
1535265330144825,-0.3125,-0.1875,-1
1535265330165886,-0.5,-0.375,-1
1535265330182425,-1.0625,-0.5,-0.8125
1535265330204986,-1.125,-0.625,-0.875
1535265330227044,-0.625,-0.375,-1.125
1535265330242083,0.375,0.1875,-1.375
1535265330264642,0.1875,0.3125,-1.3125
1535265330287202,-0.625,0.125,-1.125
1535265330302243,-1.1875,0,-0.875
1535265330324804,-1.25,-0.1875,-1.0625
1535265330347363,-1.0625,-0.375,-1
1535265330361398,-1.0625,-0.75,-0.9375
1535265330384777,-0.8125,-0.8125,-1.3125
1535265330407143,0.625,-0.375,-1.5
1535265330421559,2.0625,0.0625,-1.875
1535265330444630,2.5625,0.125,-1.875
1535265330467195,1.9375,-0.1875,-1.875
1535265330481720,1.25,-0.3125,-1.9375
1535265330504842,0.5625,-0.375,-1.875
1535265330527405,0,-0.1875,-1.4375
1535265330541763,-1,0,-0.6875
1535265330564504,-2.6875,-0.125,-0.4375
1535265330594628,-3.125,-0.4375,-0.1875
1535265330601599,-2.875,-0.3125,-0.0625
1535265330624661,-1,-0.4375,-0.875
1535265330647220,0.875,-0.3125,-1.75
1535265330661258,2.5625,0.125,-2.125
1535265330684819,3.0625,0.0625,-2.3125
1535265330707301,2.25,0,-2.375
1535265330727935,1.125,-0.5625,-2.125
1535265330744575,0.5,-0.3125,-1.5625
1535265330767093,-0.4375,-0.1875,-0.6875
1535265330788094,-2.5625,-0.4375,-0.5625
1535265330804751,-3.8125,-0.625,-0.375
1535265330827219,-3,-0.375,-0.5
1535265330848374,-1.8125,0,-0.5625
1535265330864801,-1.125,0.1875,-0.875
1535265330887362,-0.8125,-0.1875,-1
1535265330908419,-0.125,-0.625,-1.5
1535265330924960,0.75,-0.5625,-1.6875
1535265330947521,0.5625,-0.5625,-1.5625
1535265330968080,-0.625,-0.8125,-1.125
1535265330984620,-2.375,-0.8125,-0.875
1535265331007179,-3.9375,-0.9375,-0.375
1535265331028238,-4,-0.6875,-0.1875
1535265331043784,-3.8125,-0.625,-0.25
1535265331067339,-3.0625,-0.6875,-0.0625
1535265331088399,-1.5,-0.5625,-1
1535265331104445,0.5,-0.3125,-1.1875
1535265331126996,0.6875,-0.625,-1.375
1535265331149565,-0.4375,-1.0625,-1.5625
1535265331164785,-1.125,-0.75,-1.25
1535265331187324,-1.9375,-0.8125,-0.625
1535265331209719,-2.5625,-0.8125,-0.375
1535265331224757,-3.25,-0.8125,-0.3125
1535265331246875,-3.25,-0.6875,-0.4375
1535265331269441,-1.75,-0.125,-0.4375
1535265331283976,-1.4375,-0.375,-0.6875
1535265331307040,-0.625,-0.375,-1
1535265331337114,0.25,-0.3125,-1.125
1535265331344134,-0.1875,-0.75,-1.3125
1535265331367198,-1.5625,-1,-1.1875
1535265331389856,-2.375,-0.9375,-0.6875
1535265331403792,-3.125,-0.6875,-0.25
1535265331427353,-4.3125,-0.6875,-0.125
1535265331449638,-4.75,-1,-0.25
1535265331464173,-3.0625,-0.5625,-0.375
1535265331487238,-0.5,0.1875,-0.75
1535265331509799,0.4375,0.1875,-1.375
1535265331523842,1.125,-0.3125,-1.625
1535265331547397,1,-0.9375,-2.0625
1535265331569957,0.9375,-0.9375,-1.8125
1535265331583994,-0.0625,-0.9375,-1.3125
1535265331613572,-1.875,-0.6875,-0.625
1535265331629616,-2.75,-0.5,-0.5
1535265331650670,-2.125,-0.1875,-0.625
1535265331667217,-0.6875,0.125,-1.0625
1535265331689815,0.4375,0.25,-1.3125
1535265331710909,1.25,0.4375,-1.5625
1535265331727015,1.9375,0,-2
1535265331749978,2.5625,-0.1875,-2.1875
1535265331771039,2.3125,-0.5625,-1.9375
1535265331787074,0.625,-0.6875,-1.5
1535265331809635,-1.4375,-0.5,-0.8125
1535265331830690,-2.75,-0.25,-0.4375
1535265331847256,-2.5,-0.25,-0.5
1535265331869299,-1.25,-0.0625,-0.8125
1535265331890885,-0.25,0,-1.25
1535265331907404,1.125,0.375,-1.5
1535265331935476,1.1875,0.3125,-1.625
1535265331950611,0.625,-0.3125,-1.9375
1535265331967061,0.375,-0.375,-2
1535265331989613,-0.375,-0.375,-1.3125
1535265332010670,-1.5,-0.5,-0.9375
1535265332027213,-2.8125,-0.4375,-0.5
1535265332049773,-3.25,-0.375,-0.3125
1535265332070827,-1.125,0.5625,-0.75
1535265332086870,0.5625,0.625,-0.875
1535265332109641,0.9375,0.5,-1
1535265332131993,0.375,0.25,-1.1875
1535265332147031,1.125,0,-1.25
1535265332170093,0.9375,-0.375,-1.6875
1535265332192260,0.5625,-0.75,-1.6875
1535265332207296,0.0625,-0.75,-1.25
1535265332230438,-0.8125,-0.6875,-0.875
1535265332252047,-1.3125,-0.6875,-0.75
1535265332266454,-1.125,-0.375,-0.875
1535265332289513,-0.6875,-0.25,-0.9375
1535265332312190,0.1875,-0.125,-1.25
1535265332326712,0.875,0.0625,-1.375
1535265332349676,0.6875,-0.5,-1.8125
1535265332372237,1,-0.25,-1.6875
1535265332386783,0.8125,-0.5,-1.5625
1535265332409834,0.875,-0.6875,-1.6875
1535265332431895,0,-0.5,-1.25
1535265332446935,-0.25,-0.5625,-1.4375
1535265332469997,-0.0625,-0.25,-1.3125
1535265332492228,0.25,-0.4375,-1.1875
1535265332506591,0.5,-0.5625,-1.3125
1535265332529653,0.375,-0.25,-1.4375
1535265332552306,0.625,-0.3125,-1.4375
1535265332573468,0.4375,-0.1875,-1.5
1535265332589911,0.8125,-0.5,-1.3125
1535265332612469,0.5,-0.625,-1.3125
1535265332633026,0.5625,-0.5,-1.4375
1535265332649567,1.125,-0.0625,-1.125
1535265332672127,0.375,-0.4375,-1.25
1535265332693186,0.125,-0.5,-1.5
1535265332709729,0.3125,-0.4375,-1.6875
1535265332732288,0.375,0,-1.6875
1535265332753386,0.0625,0.0625,-1.25
1535265332769893,-0.125,-0.3125,-1.125
1535265332791944,-0.25,-0.625,-1.3125
1535265332814505,0.1875,-0.6875,-1.5
1535265332829545,0.4375,-0.375,-1.4375
1535265332852357,0.25,-0.3125,-1.3125
1535265332873160,0.6875,-0.3125,-1.25
1535265332889706,0.1875,-0.375,-1.3125
1535265332912271,-0.125,-0.5625,-1.3125
1535265332933325,-0.8125,-0.6875,-1.3125
1535265332949367,-1.1875,-0.8125,-1.0625
1535265332971925,-0.8125,-0.625,-1.125
1535265332993081,-0.75,-0.625,-1.3125
1535265333009524,-0.625,-0.5625,-1.5
1535265333032084,-0.3125,-0.1875,-1.375
1535265333054646,-0.5625,-0.125,-1.125
1535265333070186,-1,-0.5625,-1.1875
1535265333092243,-0.4375,-0.5,-1.125
1535265333114806,-0.75,-0.5625,-1.0625
1535265333129843,-1.25,-0.625,-1.0625
1535265333151914,-1.75,-0.3125,-0.875
1535265333174676,-2,-0.25,-0.625
1535265333189010,-1.9375,-0.375,-0.6875
1535265333212065,-1.625,-0.5,-0.875
1535265333234632,-1.1875,-0.6875,-1
1535265333249168,-1.125,-0.5625,-0.875
1535265333279844,-1.3125,-0.6875,-1.125
1535265333294504,-0.125,0,-0.8125
1535265333308922,-0.5625,-0.4375,-0.875
1535265333331983,-1,-0.8125,-1.25
1535265333354796,-1.5,-0.875,-1.125
1535265333369083,0.0625,-0.5625,-1.875
1535265333392147,-1.6875,0.4375,-0.125
1535265333414706,-0.25,-0.75,-1.8125
1535265333429244,-1.4375,0,-0.75
1535265333452320,-0.6875,-0.8125,-1.1875
1535265333474865,0.1875,-0.0625,-1.6875
1535265333488987,1.0625,0.4375,-0.8125
1535265333512216,0.8125,-0.125,-1.5
1535265333534903,-0.0625,-0.125,-1.3125
1535265333555667,0.75,-0.4375,-1.375
1535265333572211,0.25,-0.5,-1.4375
1535265333594270,0.5625,-0.375,-1.3125
1535265333615869,0.5,-0.1875,-1.3125
1535265333632431,0.75,-0.6875,-2
1535265333654939,1.125,0.25,-1.25
1535265333675487,1.75,0,-1.6875
1535265333692541,0.3125,-0.125,-1.375
1535265333714599,1.25,-0.625,-0.875
1535265333735650,2,-0.6875,-0.875
1535265333752190,1.5625,0.0625,-1.3125
1535265333774750,0,-0.3125,-1.4375
1535265333795849,-0.4375,-0.3125,-1.6875
1535265333812351,0.125,0,-1.6875
1535265333834409,-0.5,-0.0625,-1.5625
1535265333855464,-0.1875,-0.1875,-1.3125
1535265333878029,-0.125,-0.375,-1.1875
1535265333894617,0.625,-0.1875,-0.75
1535265333915747,0.9375,-0.1875,-0.5625
1535265333922778,1.25,-0.375,-0.4375
1535265333937717,0.5625,-0.5625,-1.125
1535265333960275,-0.3125,-0.625,-1.0625
1535265333982335,0,-0.3125,-1.5625
1535265333997556,-0.1875,-0.0625,-1.5625
1535265334020279,0.625,-0.1875,-1
1535265334042590,-0.125,-0.3125,-1.125
1535265334057629,-1.0625,-0.3125,-1.125
1535265334080217,-0.625,-0.375,-1.5
1535265334102652,0.375,-0.0625,-1.375
1535265334118762,0.5625,-0.1875,-1.375
1535265334140255,0.125,-0.5625,-1.5625
1535265334162311,0.4375,-0.4375,-1.625
1535265334177457,0.125,-0.5,-1.5
1535265334202919,-0.1875,-0.375,-1.3125
1535265334222573,0.1875,-0.375,-1.1875
1535265334237514,0.0625,-0.4375,-1.4375
1535265334260078,0.6875,-0.625,-1.3125
1535265334282634,0.0625,-0.625,-1.6875
1535265334297669,0.1875,-0.5625,-1.375
1535265334320233,0.1875,-0.25,-1.375
1535265334342846,0.1875,-0.375,-1.4375
1535265334357832,0.5,-0.4375,-1.25
1535265334379894,0.1875,-0.5,-1.1875
1535265334402449,-0.6875,-0.5,-1.1875
1535265334417490,-1.1875,0.25,-0.75
1535265334440053,-0.8125,-0.5,-0.9375
1535265334462712,-0.625,-0.75,-1.9375
1535265334479154,1.25,-0.5,-1.9375
1535265334500303,1.9375,-0.3125,-1.3125
1535265334522872,1.1875,-0.125,-1.3125
1535265334537812,0.8125,-0.25,-2.0625
1535265334560373,1.125,-1.1875,-2.25
1535265334583956,1.75,-1.25,-1.25
1535265334598985,2.375,-0.9375,-1.6875
1535265334623038,1.875,-0.625,-1.6875
1535265334642591,3.5625,0.6875,-1.0625
1535265334666653,3.125,1.3125,-1
1535265334680187,-0.875,0.25,-0.6875
1535265334702249,-2.625,0.75,-1.375
1535265334718872,-1.4375,1.125,-1.3125
1535265334740350,-0.6875,0.9375,-2.0625
1535265334762482,-3.4375,0.1875,-3.125
1535265334778953,-1.1875,-0.375,-2.875
1535265334800008,2.1875,0.4375,-2.8125
1535265334822604,0.4375,1.9375,-2.625
1535265334839112,-0.9375,2.4375,-0.375
1535265334860177,-5.25,2.5625,0.5625
1535265334882727,-10.6875,1.375,1.5
1535265334898772,-15.3125,-2.625,3.4375
1535265334919829,-15,0.5625,2.4375
1535265334942386,-16.625,1.0625,5.375
1535265334960439,-18.875,0.5625,6.6875
1535265334987506,-18.625,-2.125,6.75
1535265335002546,-16.5,-3.0625,3.375
1535265335020595,-12,-1.5,2
1535265335040148,-10.375,0,-0.3125
1535265335062705,-14.8125,0.375,2.8125
1535265335080254,-8.25,7.5,7.0625
1535265335099809,7.8125,18.125,13.25
1535265335122364,-14.0625,25.5,16.75
1535265335140412,-15.375,33.625,16.8125
1535265335159967,14.125,47.3125,22.25
1535265335182529,31.125,58.8125,35.1875
1535265335200571,19.625,60.1875,36.25
1535265335220125,30,57.4375,43.5
1535265335242689,27.8125,57.3125,48.6875
1535265335260762,61.6875,62.25,52.5625
1535265335279860,37.5625,49.3125,59.375
1535265335309898,-4.1875,34.75,80.6875
1535265335320500,-1.125,34,85
1535265335340953,26.4375,39.5625,82.0625
1535265335362511,49.125,43.625,85.5
1535265335380559,49.75,42.4375,88.1875
1535265335401609,37.5625,39.6875,87.875
1535265335422770,33.4375,39.5,94.3125
1535265335440211,29.5625,35.4375,102.563
1535265335459799,26,29.875,106.063
1535265335482323,32.75,26.5,104.188
1535265335500872,42.9375,24.875,104.25
1535265335527442,43.125,18.4375,108.563
1535265335542588,26.9375,10.375,111.313
1535265335560531,22.125,9.875,113.5
1535265335581727,29.625,12.125,114.313
1535265335602680,35.4375,20.5,113.625
1535265335620190,27.75,30.875,115.063
1535265335641246,13,47,114.438
1535265335665319,-14.4375,64.25,116
1535265335680350,-29.1875,92.4375,111.813
1535265335701417,-27.6875,121.25,107.813
1535265335722572,-42.75,144.188,102.063
1535265335740658,-50.3125,163.438,98.4375
1535265335761566,-62.125,179.188,96.4375
1535265335782622,-68.5625,190.75,96.125
1535265335800169,-71.1875,199.313,99.3125
1535265335821731,-69.8125,196.313,102.313
1535265335842781,-56.9375,185.375,109.063
1535265335860328,-42.625,168.438,107.313
1535265335881384,-25.6875,150.688,97.75
1535265335902448,-9.5625,132.688,74.3125
1535265335920494,3.4375,109.813,56.625
1535265335943049,5.75,82.625,42.25
1535265335962901,-4.25,51.875,24
1535265335980648,-5.5,34.625,9.625
1535265336002708,5.25,21.5,4.9375
1535265336022762,4.6875,9.875,8.6875
1535265336040432,8.0625,3.125,8.3125
1535265336062868,15.3125,1.9375,10.1875
1535265336082420,10.6875,1.6875,13.8125
1535265336100466,6.4375,4.625,15.1875
1535265336123028,0.6875,6.8125,16.125
1535265336145625,2.3125,10.375,12.875
1535265336160664,3.5,10.375,5.6875
1535265336182713,3.875,8.75,-2.625
1535265336202344,2.5,5.9375,-15.625
1535265336220788,-0.4375,-0.6875,-29.4375
1535265336242907,-0.75,-16.3125,-41.4375
1535265336262400,4.5625,-39,-54.0625
1535265336280551,3.5625,-70.0625,-67.8125
1535265336303006,-8.9375,-112.938,-78.6875
1535265336322559,-18.625,-158.438,-76.1875
1535265336340607,-27.5625,-195.313,-68.0625
1535265336363211,-19.75,-225.688,-65.875
1535265336382716,2.3125,-241.5,-59.8125
1535265336400295,39.0625,-245.625,-52.9375
1535265336422824,48.5,-249.313,-43.125
1535265336442428,38.1875,-244.5,-26.75
1535265336460469,33.8125,-219.438,-16
1535265336482985,52.125,-189.25,-14.625
1535265336504041,76.3125,-161.938,1.875
1535265336520586,84.6875,-117.375,18.125
1535265336543144,95.125,-77.5625,31.3125
1535265336563201,85.375,-54.1875,37.125
1535265336585759,48.8125,-43,40.25
1535265336601801,26.4375,-34.3125,33.375
1535265336623361,30.5625,-23.4375,24.5
1535265336638900,36.5625,-17.0625,23.5
1535265336661979,31.9375,-13.5625,21.625
1535265336683127,26.0625,-9.6875,17.3125
1535265336699063,24.8125,-5.75,17.1875
1535265336729644,21.6875,-6.75,18.9375
1535265336743177,12.375,-2.3125,20.75
1535265336758717,20.0625,3.8125,17.875
1535265336782281,21.8125,4.1875,19.5
1535265336803343,16.9375,4.625,20.8125
1535265336818882,8.6875,3.8125,18
1535265336841948,11.0625,2.5,12.1875
1535265336864513,9.0625,-1,12.3125
1535265336887062,10.8125,-1.75,9.9375
1535265336902203,10.25,-2.9375,5.875
1535265336924660,0.875,-7.75,4.9375
1535265336945719,-2.3125,-7.875,6
1535265336962268,1,-7.5625,3.25
1535265336984820,3.75,-5.875,1.5625
1535265336998897,3.875,-4.9375,1.6875
1535265337022422,4.375,-6,2.625
1535265337044491,1.5625,-7.8125,4.25
1535265337059069,1.1875,-9.125,5.4375
1535265337082266,0.375,-8.5625,4.5625
1535265337104690,-0.25,-8.25,4.25
1535265337118948,1.625,-8.1875,2.375
1535265337142289,3.3125,-7.4375,1.4375
1535265337164848,6.5,-3.375,0.375
1535265337178915,12.1875,-2.625,-0.6875
1535265337201948,5.125,-4.6875,-0.125
1535265337224510,-5.25,-6.4375,-0.9375
1535265337239161,-4.5625,-1,-3.5
1535265337262109,2.875,4.4375,-6
1535265337284669,6.5,9.3125,-11.3125
1535265337305733,-6.1875,11.6875,-17.125
1535265337322421,-15.6875,15.125,-21.25
1535265337344327,-18,17.8125,-25.625
1535265337365886,-23.125,17.8125,-30.4375
1535265337381926,-29.1875,17.6875,-33.375
1535265337404768,-32.4375,18.6875,-37.875
1535265337425647,-27.3125,19.6875,-43.25
1535265337441585,-26.0625,13,-43.5
1535265337464652,-35.75,5.75,-44.75
1535265337485797,-44.1875,3.125,-46.3125
1535265337502354,-38.6875,3.5625,-45.875
1535265337524808,-36.4375,0.25,-42.1875
1535265337545920,-36.125,-7.125,-40.625
1535265337561908,-43.5,-11.9375,-40.375
1535265337584471,-35.4375,-11.5625,-36.5
1535265337605530,-18.75,-11.4375,-34.75
1535265337622068,-8.5625,-12.6875,-36.25
1535265337644631,-6.75,-14.0625,-34.625
1535265337665681,-4.625,-16.3125,-31.3125
1535265337682230,-7.8125,-19.75,-36.125
1535265337704792,-3.1875,-25,-39.25
1535265337725843,5.625,-30.125,-35.375
1535265337748486,8.625,-30.5,-33.6875
1535265337764976,-2.625,-27.5,-29.75
1535265337787031,-21.6875,-14.5625,-19.9375
1535265337809755,-23,3.875,-12.0625
1535265337824631,-18.5625,18.25,-9.125
1535265337847191,-22.375,27.875,-6.625
1535265337861229,-22.25,36.8125,-6.4375
1535265337884806,-21.6875,40.9375,-9.3125
1535265337907353,-24.1875,38.625,-8.875
1535265337921389,-32.5625,36.75,-10.875
1535265337944456,-32.375,34.0625,-9.9375
1535265337967017,-19.375,33.4375,-9.375
1535265337981550,0.625,33.5625,-7.9375
1535265338004611,5.125,29,-6.3125
1535265338027230,8.75,20.75,-1.5625
1535265338048309,12.3125,15.0625,4.875
1535265338064594,22,6.75,3.875
1535265338087329,27.5,-2.6875,7.9375
1535265338108398,35.0625,-9.625,13.5
1535265338124440,28.5,-20.625,15.3125
1535265338146989,31.75,-26.9375,13.75
1535265338168050,33.0625,-26.0625,11.8125
1535265338184588,25.5625,-23.9375,9.125
1535265338207149,14.1875,-21.8125,6.875
1535265338228212,13.8125,-17.3125,8.1875
1535265338244751,14.9375,-12.8125,7.25
1535265338266807,5.4375,-11.6875,5.5625
1535265338288365,0,-13.1875,5.6875
1535265338304406,6.625,-14.125,5.5
1535265338326991,14.75,-15.0625,3.5625
1535265338348529,13,-17.125,3.4375
1535265338364626,4.0625,-11.375,4.5
1535265338387184,0.8125,-2.75,1.6875
1535265338408282,-2.8125,4,-4.0625
1535265338424785,-7.6875,7.625,-8.3125
1535265338446970,-10.9375,4.4375,-9.125
1535265338468406,-9.0625,-0.0625,-8.0625
1535265338484946,-3.5625,-7.25,-7.4375
1535265338507004,-4.4375,-7.8125,-8.4375
1535265338528567,-0.625,-5.25,-7.3125
1535265338544605,-7.125,-3.75,-4.9375
1535265338567171,-7,-6.375,-6.25
1535265338588331,-2.5,-10.25,-4.3125
1535265338604763,0,-15.4375,-3
1535265338627324,0,-13.125,0.3125
1535265338649383,-9.1875,-10.1875,-8.1875
1535265338665425,-17.75,-3.4375,-11.25
1535265338687201,-7.5,-6.9375,-18.625
1535265338708041,-12,-6.375,-13.125
1535265338724081,-13.6875,-10.25,-11.125
1535265338747143,-23.3125,-8.6875,-8.5
1535265338769784,-22.375,-4.6875,-10.125
1535265338783740,-8.4375,-1.3125,-8.9375
1535265338807305,-8.625,0.0625,-9.375
1535265338829400,-14.9375,3.25,-8.625
1535265338843937,-18.375,6.5625,-8.9375
1535265338867070,-18.375,11.3125,-13.1875
1535265338889641,-19.1875,14.5625,-16.5625
1535265338904111,-24.8125,14.625,-17.3125
1535265338927166,-29.1875,14.0625,-15.625
1535265338949723,-24.5,15.375,-15.3125
1535265338970776,-18.3125,15.9375,-17.125
1535265338987320,-22.25,14.5,-17.1875
1535265339009490,-25.3125,11.4375,-15.5
1535265339030934,-26.0625,9,-15.3125
1535265339046980,-21.375,5.75,-16.0625
1535265339069538,-21.5625,1.875,-17.6875
1535265339090625,-21.25,-0.4375,-17.5625
1535265339107640,-19.6875,-4.3125,-18
1535265339129698,-16.625,-7.75,-16.8125
1535265339150854,-15.625,-9.8125,-16.0625
1535265339167299,-15.875,-10.375,-15.25
1535265339196877,-19.75,-11.75,-13.125
1535265339210914,-21.1875,-10.8125,-10.4375
1535265339226960,-18.625,-8.375,-9.75
1535265339249517,-13,-5.375,-11.6875
1535265339270572,-11,-3.875,-14
1535265339287116,-13.75,-4.5,-12.75
1535265339309682,-18.625,-4.75,-10.5625
1535265339330836,-20.25,-4.0625,-11.9375
1535265339347362,-15,-2.5,-12.8125
1535265339369835,-12.1875,-1.375,-11.6875
1535265339390994,-14.5625,-1.5,-9.1875
1535265339406939,-15.5,-0.9375,-7.6875
1535265339429497,-14.25,0.8125,-6.5625
1535265339450555,-11.3125,2.375,-6.3125
1535265339467096,-11.8125,1.3125,-6.75
1535265339489724,-13.4375,0.9375,-5.125
1535265339510814,-14.375,1,-5.1875
1535265339527257,-12,0.5625,-5.25
1535265339549816,-8.375,-0.9375,-4.5
1535265339570871,-8.125,-2.75,-3.0625
1535265339587415,-8.4375,-3.25,-1.5
1535265339609672,-6.6875,-2.25,-1.4375
1535265339630636,-3.6875,-1.9375,-2.125
1535265339647380,-3.375,-2.4375,-1.125
1535265339669731,-6.0625,-2.25,-0.1875
1535265339692194,-6.75,-0.375,-0.75
1535265339707341,-4.75,0,0
1535265339729531,-2.9375,1.1875,1.5
1535265339752404,-5,2.1875,0.875
1535265339766566,-7.4375,2.0625,1.3125
1535265339789676,-5.9375,3.75,2.25
1535265339812019,-5.0625,4.5,3.9375
1535265339826684,-1.3125,3.25,6.3125
1535265339849799,-0.625,3.375,5.875
1535265339872174,-3.25,2.1875,5.875
1535265339886210,-5.625,2.125,5.375
1535265339909853,-6.9375,2.6875,5.75
1535265339939350,-0.375,2.625,5.0625
1535265339946373,3.1875,1.6875,2.3125
1535265339969516,0.375,-0.0625,2.6875
1535265339992100,-1,-0.25,3.375
1535265340006528,-3.75,0.125,4.125
1535265340029622,-2.75,1.25,4.125
1535265340052152,2.3125,1.5625,2.5625
1535265340066718,3.0625,2.5625,2.4375
1535265340089867,1.4375,2.375,3.9375
1535265340112338,-0.75,1.4375,4.4375
1535265340126431,3.8125,2.125,2.3125
1535265340149910,10.1875,2.5625,1.875
1535265340172474,6.375,1.1875,4.25
1535265340193145,-0.75,-0.0625,5.5
1535265340209569,-2.625,0.3125,5
1535265340232130,2.1875,2.5625,3.0625
1535265340252688,5.75,4,2.25
1535265340269805,3.875,3.5625,2.5625
1535265340292356,-5.5,2.75,3.5
1535265340313345,-9.8125,3.3125,3.9375
1535265340329389,-2.4375,5.4375,2.4375
1535265340352029,4.9375,5.6875,1.8125
1535265340373123,4.0625,4.3125,2.25
1535265340389550,-1.25,1.9375,3.25
1535265340412118,-2.6875,-0.5625,2.375
1535265340433273,0.625,-2.125,0.625
1535265340449713,4.25,-2.25,0.5625
1535265340472271,2.5,-2.8125,1.5
1535265340493394,0.125,-3.5,1.875
1535265340509870,1.9375,-2,1.0625
1535265340539447,3.875,-0.75,0
1535265340552987,2.625,0,-0.625
1535265340569923,-1.5625,0.6875,-0.875
1535265340592181,-4.625,1.8125,-0.875
1535265340613249,-3.9375,2.6875,-0.75
1535265340629699,-1.625,1.9375,-1.75
1535265340652252,-1.25,1.625,-2.5625
1535265340674810,-2.375,1.0625,-0.6875
1535265340689863,-2.3125,1.75,0.875
1535265340712187,-1.0625,2.125,1.375
1535265340734468,-3.25,1.875,2
1535265340749057,-1.1875,2.9375,1.9375
1535265340772569,-0.375,3.5625,1.5
1535265340794626,-0.1875,3.25,2.625
1535265340808685,0.8125,3.625,2.5625
1535265340832232,-1.1875,3.5625,2.875
1535265340860840,-2.125,3.9375,2.1875
1535265340868854,-3.5625,3.6875,1.8125
1535265340891963,-2.6875,3.8125,1.75
1535265340914560,-2,3.9375,1.125
1535265340929036,-1.875,3.5,0.75
1535265340952045,-2.6875,3.625,0.1875
1535265340974672,-4,4.5625,0.9375
1535265340988644,-8.1875,3.625,2.3125
1535265341012316,-13.0625,0.6875,1.375
1535265341034765,-7.75,-1,0
1535265341055820,3.1875,-0.1875,-1.0625
1535265341071933,3.3125,-1.625,-1.5
1535265341094424,3.125,-2,0.3125
1535265341115585,5,-1.6875,1.9375
1535265341132026,5.1875,-1.125,4.5625
1535265341154585,5.8125,-2.25,5.25
1535265341175641,4.5625,-4.9375,5.0625
1535265341192320,2.25,-8,2.5
1535265341214743,2.5625,-10.0625,1.6875
1535265341235799,6.25,-11.375,3.25
1535265341259632,10.6875,-11.625,5.1875
1535265341274405,12.9375,-10.1875,4.8125
1535265341295966,13,-6.125,4.9375
1535265341312081,6.0625,0.4375,8.8125
1535265341334563,2.0625,0,11.1875
1535265341355620,3.5625,-3.75,14.1875
1535265341372297,7.5625,-4.5625,13.875
1535265341394767,7.125,-4.9375,14.5
1535265341415779,8.1875,-7.4375,17.4375
1535265341431821,14,-7.1875,16.5625
1535265341454882,20.8125,-5.9375,14.125
1535265341476000,22.1875,-2.75,10.1875
1535265341491496,10.4375,13.125,16.25
1535265341514550,-2.8125,4.0625,23.625
1535265341535701,-5.125,-1.6875,20.9375
1535265341551640,-6,-4.75,19.9375
1535265341574702,0.75,-5.4375,21
1535265341604781,6.3125,-4.5,16.4375
1535265341611336,9.4375,-5.1875,8.9375
1535265341634904,9,-0.3125,4.875
1535265341656957,1.75,5.1875,8.1875
1535265341671499,-12.6875,10.5625,14.0625
1535265341694565,-19.5625,9.875,16.25
1535265341717122,-15.9375,7.8125,10
1535265341731660,-21.5625,1.25,10.75
1535265341754719,-25.3125,-9.75,17.1875
1535265341777276,-22.3125,-16.625,16.25
1535265341791441,-10.3125,-11,8.6875
1535265341814377,9.125,-0.125,3.5
1535265341837169,15.8125,7.1875,1.75
1535265341858498,-4.4375,11,8.9375
1535265341874559,-30.8125,8.4375,14.3125
1535265341897097,-31.9375,4.5,9.25
1535265341925673,-15.0625,2.5625,4.375
1535265341934700,-6.1875,-5.25,9.375
1535265341957255,-13.875,-12.25,9.8125
1535265341978396,-10.4375,-10.4375,6.3125
1535265341994354,4.75,-5,0.9375
1535265342017417,19.375,3.4375,-4.9375
1535265342037971,16.25,0.625,-1.25
1535265342054516,-1.5625,0.625,-1.125
1535265342077080,-16.875,-3.125,0.125
1535265342107161,-20.5625,-8.0625,-2.6875
1535265342114680,-14.4375,-13.125,3.625
1535265342137235,-11.625,-15,7.25
1535265342158293,-0.0625,-14.5,3.25
1535265342174835,6.6875,-8.0625,-1.375
1535265342196897,12.6875,-0.125,-5.1875
1535265342218054,12.3125,1.75,-3.5
1535265342224973,2.25,-1.625,1.0625
1535265342240010,-1.25,0,-4
1535265342262568,-6.0625,0.125,-2
1535265342285229,-16.875,-3.6875,2.125
1535265342301739,-19.875,-7,4
1535265342322733,-3,-3.625,1.125
1535265342345083,13.75,1.5625,-2.5625
1535265342359826,10.375,1.625,-3.75
1535265342382492,-4.5,0.3125,1.375
1535265342405044,-15,0.75,6.25
1535265342419991,-7.0625,4.375,6.25
1535265342442548,10.1875,11.375,3.5
1535265342466686,20.6875,12.8125,4.1875
1535265342481466,11,6.875,9.4375
1535265342502707,-0.8125,3.625,10.375
1535265342525394,-2.4375,5.1875,9.75
1535265342540310,1.0625,3.4375,11.125
1535265342562876,6.0625,3.9375,8.4375
1535265342585048,6.0625,4.8125,6.125
1535265342600118,-2.0625,3,8.6875
1535265342622641,0.1875,4.625,8.625
1535265342645086,9.125,8.625,5.4375
1535265342660127,19.375,6.4375,7.375
1535265342682688,3.1875,2.875,14.375
1535265342704766,-23.9375,-5.875,22.5
1535265342719787,-21,-3.5625,17.5625
1535265342742344,10.8125,6.125,10.0625
1535265342764984,22.875,11.5,11.8125
1535265342779992,5.8125,7.1875,19.125
1535265342802610,-9.5,2.625,23.4375
1535265342825067,-0.25,3.5,19.5625
1535265342841608,20.8125,12.6875,15.75
1535265342862254,21.125,17.125,15.25
1535265342885228,3.25,13.6875,19.3125
1535265342899869,-7.5,11.5,20.1875
1535265342922541,9.1875,16.125,13.5
1535265342944885,20.3125,19.6875,7.875
1535265342959925,12.125,16.8125,9.0625
1535265342982484,-0.625,13,9.125
1535265343005149,-2.375,9.5625,6.0625
1535265343023150,6.0625,5.25,2.25
1535265343042642,3.3125,-2.375,6.5625
1535265343067709,-1.875,-8.625,9.375
1535265343081406,2.5625,-12.0625,3.6875
1535265343102867,7.75,-13.5,0.625
1535265343124862,7.4375,-17.1875,0.9375
1535265343141418,6.5,-17.6875,-1.0625
1535265343162572,7.875,-17,1.5625
1535265343185129,9.4375,-17.1875,4.9375
1535265343203070,9.25,-18.6875,4.125
1535265343222623,10.1875,-18.5625,5
1535265343245183,9.75,-19.4375,8.75
1535265343261728,0,-20.5625,7.125
1535265343282784,-5.25,-22.625,8.125
1535265343304842,-8.4375,-22.9375,6.8125
1535265343321607,0.6875,-19.5,2.125
1535265343342441,0.3125,-16.0625,0.9375
1535265343365103,-5.25,-13.9375,4.375
1535265343389068,-7,-9.75,3.125
1535265343402441,-4.3125,-7.1875,0.3125
1535265343424969,-4.5,-5.875,-1.4375
1535265343441444,-10.4375,-8.6875,1.75
1535265343462627,-7.375,-11.25,2.5
1535265343485163,-4.5625,-12.1875,2
1535265343503212,-7.9375,-15.4375,5.4375
1535265343522719,-3.25,-14.125,-2.3125
1535265343544819,-5.125,-14.1875,-2.9375
1535265343562828,-5.3125,-16.6875,-7.1875
1535265343582488,-6,-19.5,-8.375
1535265343605037,-6.125,-21.0625,-12.8125
1535265343622988,-3.125,-18.25,-18.75
1535265343642653,-0.25,-15.25,-17.125
1535265343665100,-3.6875,-13.4375,-9.6875
1535265343683147,-2.4375,-9,-8.8125
1535265343702701,1.25,-2.125,-12.5625
1535265343724892,6.4375,3.625,-18.5625
1535265343742807,7.9375,2.8125,-16.3125
1535265343762864,-5.875,-0.4375,-13.75
1535265343784922,-4,2,-19.4375
1535265343802965,0,-1.1875,-31.25
1535265343822626,-2.25,-4.25,-39.9375
1535265343845193,-0.3125,-2.6875,-41.875
1535265343870645,-2.6875,3.1875,-42
1535265343882738,-4.6875,15.4375,-42.8125
1535265343905280,1.625,30.125,-42.5625
1535265343922785,12,39.0625,-36.3125
1535265343942336,4.3125,40.25,-24.5
1535265343965006,-7.625,37.5,-12.875
1535265343982946,-3.25,33.5625,-2.625
1535265344002611,4.0625,28.125,8.625
1535265344025057,11.125,16.9375,22.875
1535265344043175,6.3125,8.75,29.4375
1535265344062730,-3.4375,4.75,33.5
1535265344085225,-4.0625,5.0625,35.125
1535265344103377,-1.75,10.8125,29.875
1535265344123820,-3.375,22.625,25.75
1535265344144878,-13.125,27.25,27.125
1535265344162928,-14.1875,34.25,23.4375
1535265344183980,10.25,45.6875,15.5625
1535265344205038,15.6875,50.6875,15.625
1535265344223083,0.75,44.5,19.3125
1535265344244139,-4.25,41.4375,16.6875
1535265344265242,7.875,42.875,10.5
1535265344283008,19.375,42,5.9375
1535265344311431,18.1875,33.5625,5.6875
1535265344324959,8.1875,24.4375,5.4375
1535265344342904,9.0625,16.3125,-2.25
1535265344363958,18.0625,9.125,-11.8125
1535265344385016,24.6875,7.1875,-20.1875
1535265344410632,29.25,6.9375,-16
1535265344425622,13.375,-0.25,-4.3125
1535265344445230,-1.8125,-10.5625,-2.5
1535265344463223,-0.125,-10.4375,-1.9375
1535265344485283,18.875,2.9375,-5.9375
1535265344505336,22.75,12.8125,-3.25
1535265344523007,0.875,8.5625,2.625
1535265344545442,-11.6875,12.4375,-1.6875
1535265344565000,-0.1875,24.4375,-6.5
1535265344583041,7.5625,30.625,-8.625
1535265344605603,1,30,-7.8125
1535265344625159,-2.1875,26.8125,-5.25
1535265344642700,3.5625,27.875,-4.9375
1535265344665266,7.9375,27.25,-3.9375
1535265344685318,6.4375,23.25,-3.5625
1535265344703043,8.5,22.25,-2.0625
1535265344725467,11.875,23.375,-4.75
1535265344746609,11.75,24.5625,-5.375
1535265344763056,6.625,22,-4.25
1535265344785581,4.875,19.75,-3.5
1535265344805135,6.1875,18.625,-3.25
1535265344822678,8,17.875,0.375
1535265344845414,4.25,16.4375,5.5
1535265344864792,3.3125,14.4375,8.5625
1535265344882931,6.4375,13.6875,7.5
1535265344904897,10.0625,18.25,4.125
1535265344933513,6.25,20.8125,2.6875
1535265344942268,4.9375,24.5,-0.4375
1535265344964626,13.0625,27.625,-4.5
1535265344985780,16.25,26.9375,-8.9375
1535265345009743,14.0625,23.5,-13.0625
1535265345024786,16.25,18.75,-20
1535265345045846,15.1875,8.8125,-28.375
1535265345061960,10.375,-4.125,-40.0625
1535265345084445,17.75,-17.375,-48.8125
1535265345105604,23.125,-35.375,-59.125
1535265345122044,7.125,-54.375,-58.6875
1535265345144604,0.25,-49.3125,-41.375
1535265345165659,-3.6875,-48.125,-23.125
1535265345182205,-32.8125,-55.5625,-5.625
1535265345204582,-47.0625,-60.125,4.0625
1535265345225641,-21.75,-53.125,2.875
1535265345242186,4.8125,-46.25,0.5
1535265345264743,9.1875,-46.3125,-0.875
1535265345285799,2.1875,-49.4375,-1.25
1535265345301341,-6,-52.4375,3.1875
1535265345324403,-5.625,-61.25,14.4375
1535265345346971,-3.75,-74.5,26.6875
1535265345361503,-10.5625,-88.875,41.9375
1535265345384639,-0.375,-90.4375,55.0625
1535265345407121,41.875,-92.875,61.0625
1535265345421160,81.4375,-87.3125,57.25
1535265345444721,111.313,-73.25,52.5625
1535265345467348,129.25,-53.4375,41.3125
1535265345481320,131.625,-35.875,44.4375
1535265345504380,104.125,-32.125,58
1535265345526940,60.3125,-30.5,64.4375
1535265345541486,50.0625,-22.25,57.5625
1535265345564552,57.75,-14.1875,46.9375
1535265345587101,76.6875,3.5,48.5625
1535265345601638,88.5,13.3125,48.8125
1535265345624699,78.8125,15.25,41.5
1535265345647259,63.875,7.9375,33.875
1535265345667812,38.8125,2.375,27.875
1535265345684357,29.9375,-5.375,15.375
1535265345706917,26.875,-11.1875,3.6875
1535265345727975,19.125,-25.875,-6.5625
1535265345744518,14.8125,-39.9375,-10.4375
1535265345767079,19.5,-40.0625,-14
1535265345788143,26.1875,-35.625,-16.4375
1535265345810694,27.625,-37,-19.875
1535265345827238,26,-41.9375,-24.1875
1535265345847888,20.8125,-52.8125,-28.4375
1535265345864461,11.75,-55,-33.3125
1535265345886895,6.6875,-51.875,-36.625
1535265345907952,-12.375,-53.875,-25.8125
1535265345924495,-37.375,-32.1875,-16.125
1535265345947056,-28.6875,-4.1875,-8
1535265345968112,-23.5,12.25,0.0625
1535265345984662,-31.125,26.375,1.8125
1535265346007237,-39.5,33.875,6.3125
1535265346028292,-35.4375,34.8125,10.1875
1535265346044368,-23.4375,34.3125,6.1875
1535265346067400,-18.375,35.125,0
1535265346088471,-25.0625,35,-1.25
1535265346104506,-36.0625,34.3125,-7.875
1535265346134579,-52.75,31.3125,-19.1875
1535265346148117,-62.5625,34.6875,-32.6875
1535265346164659,-73.1875,37.9375,-48.125
1535265346187219,-76.75,40.625,-69.25
1535265346208280,-64.0625,42.375,-87.8125
1535265346223823,-56.875,32.4375,-106.188
1535265346246875,-58.3125,18.5,-129.688
1535265346267934,-62.375,4.75,-155.688
1535265346283973,-72.3125,-7.0625,-177.625
1535265346307036,-79.4375,-20.375,-192.375
1535265346329596,-84,-26.75,-201.188
1535265346344136,-92.625,-23.8125,-204.563
1535265346367699,-84.5,-9,-202.25
1535265346389757,-59.9375,2.625,-192.625
1535265346403807,-54.75,11.375,-181.375
1535265346427368,-56.375,24.875,-171.875
1535265346449414,-60.8125,34.3125,-161.938
1535265346463953,-59.875,37.5625,-148.188
1535265346487267,-44.8125,32.4375,-132.938
1535265346509576,-35.4375,24.5,-130.063
1535265346524119,-30.125,16.8125,-130.25
1535265346547174,-27.6875,6.9375,-126.5
1535265346569740,-28.75,-8.5,-115.438
1535265346598424,-33,-28.25,-104.5
1535265346607336,-33.75,-39.0625,-100.188
1535265346629394,-27.5,-44.1875,-93.1875
1535265346650950,-31.9375,-56.875,-81.875
1535265346666994,-29.5625,-59.6875,-72.25
1535265346689554,-15.1875,-57.9375,-61.625
1535265346710616,-7.625,-53.5625,-53.5625
1535265346727153,-5.25,-45.4375,-40.0625
1535265346749722,10.25,-39.75,-22.625
1535265346770869,15.625,-36.25,-13.6875
1535265346787319,9.75,-32.5,-8.625
1535265346809875,0.6875,-30.6875,-8.375
1535265346831008,4.9375,-29.3125,-10.3125
1535265346847045,3.3125,-30.25,-11.5625
1535265346869604,2.375,-23.8125,-8.875
1535265346890659,28.8125,-30.25,-1.5
1535265346907205,31.1875,-14.1875,5.9375
1535265346929797,16.3125,-15.625,13.375
1535265346950820,-1.375,-19.875,-3.1875
1535265346966862,-10.5625,-6.3125,22.5625
1535265346989423,-13.75,-2.625,47.75
1535265347010981,6.375,20.875,78.875
1535265347027025,50.9375,67.25,105.813
1535265347049589,-44.3125,4.8125,212.688
1535265347072142,76,53.375,223.063
1535265347087183,35.6875,38.5,208.188
1535265347109741,19.5625,27.875,218.875
1535265347130798,23.125,40.5,192.688
1535265347146414,12.125,37.0625,159.438
1535265347169903,2.8125,29.3125,126.75
1535265347190459,-4.125,1.5625,117.125
1535265347213017,-47.6875,-21.1875,101.625
1535265347229564,-81,-6.375,88.5
1535265347252124,-96.9375,-4.125,77.625
1535265347273178,-93.625,-16,71.4375
1535265347289722,-87.625,-22.8125,56.375
1535265347312281,-82.1875,-39.0625,56.125
1535265347326320,-24.875,-47.5625,68.4375
1535265347349381,18.0625,-46.8125,64.0625
1535265347371939,14.0625,-42.6875,73.5625
1535265347386483,2.875,-32.6875,73.75
1535265347409543,1.625,-14.75,54.4375
1535265347433606,18.875,11.9375,27
1535265347453212,31.375,33,10.6875
1535265347469704,36.4375,44.0625,-0.625
1535265347492260,38.25,53.0625,-18.5625
1535265347520836,37.9375,54.6875,-25.3125
1535265347529359,40.125,51.25,-25.3125
1535265347551920,46.375,51.9375,-21.0625
1535265347572978,45.0625,45.125,-12.1875
1535265347589522,40.8125,34.9375,-4.5
1535265347613584,39.5,29.3125,1.75
1535265347633242,39.6875,26.375,3.4375
1535265347649689,39.1875,26.75,4.5
1535265347672258,43.75,31.25,4.25
1535265347693316,45,36.375,-2
1535265347709860,45.5,43.8125,-5.1875
1535265347731916,49.9375,54,-7.9375
1535265347753043,49.875,63.0625,-14.8125
1535265347769524,42.5625,66.5,-17.5625
1535265347798098,41.25,70.5,-17.3125
1535265347813137,43.8125,75.375,-16.375
1535265347829678,41,77.125,-19.8125
1535265347852242,33,75.0625,-22.375
1535265347873415,25.0625,71.1875,-22.375
1535265347889839,17,66.5625,-21.6875
1535265347911900,14.1875,66.6875,-20.5625
1535265347934458,15.0625,64.9375,-24.0625
1535265347948995,11.9375,61.1875,-25.8125
1535265347972141,1.8125,49.625,-20.3125
1535265347994616,-3.3125,39.625,-14.5625
1535265348009210,-6.0625,30.5625,-8.9375
1535265348032858,-9,26,-9.5625
1535265348053275,-11.1875,19.0625,-8.3125
1535265348069819,-11.1875,11,-7.125
1535265348092380,-12.125,6.6875,-3.875
1535265348113435,-11.25,0.125,-2.9375
1535265348129058,-5.25,-6.0625,-0.375
1535265348153542,-4.25,-14.6875,-0.75
1535265348174596,-13.0625,-22.5625,-0.25
1535265348195694,-12.75,-31.4375,0.9375
1535265348212196,-7.75,-34.9375,-1.375
1535265348234756,-4.375,-39.375,-5.0625
1535265348248793,-11.6875,-39.9375,-6.75
1535265348272026,-12.875,-38.4375,-3.4375
1535265348294414,-1.625,-32,-5.5625
1535265348308963,-0.375,-27.4375,-10
1535265348332014,-13.6875,-27,-9.375
1535265348355075,-18.875,-23.9375,-9.0625
1535265348375630,-12.4375,-17.3125,-9.9375
1535265348392175,-7.125,-10.875,-15.875
1535265348414846,-7.1875,-9.625,-16.75
1535265348428811,-11.75,-15.8125,-12.9375
1535265348452335,-17.75,-25.0625,-5.5
1535265348474443,-17.375,-32,-1.875
1535265348495956,-16.25,-33.6875,-2.25
1535265348511993,-15.5625,-33.625,1.375
1535265348540575,-15.625,-30.0625,1.4375
1535265348555609,-14.1875,-26.5625,1.6875
1535265348572154,-16.9375,-25.1875,1.3125
1535265348594713,-20.625,-23.8125,3.25
1535265348615771,-17,-15.9375,-0.5
1535265348631811,-9.375,-5.125,-5.3125
1535265348654372,-4.3125,9.75,-15.3125
1535265348675930,-1.4375,19.375,-28.4375
1535265348691973,-4,22.6875,-42
1535265348714531,-3.625,26,-59.0625
1535265348735692,-3.9375,26.3125,-78.5
1535265348752131,-2.25,20.1875,-100.938
1535265348774690,4.5,14.3125,-123.625
1535265348795795,11.1875,-1.125,-135.063
1535265348812290,12.5625,-28.875,-136
1535265348834850,12.5625,-61.0625,-139.438
1535265348855510,9.25,-96.1875,-150
1535265348871954,5.0625,-122.063,-150.875
1535265348894518,19.75,-120.625,-151.563
1535265348915569,41.5625,-116.625,-161.813
1535265348932115,19.5,-130.063,-170.313
1535265348954671,15.375,-91.0625,-151.625
1535265348975770,32.1875,-59.625,-102.375
1535265348992270,24.9375,-59.125,-57.875
1535265349014830,9.125,-54.625,-41
1535265349038394,32.3125,-36.75,-45.4375
1535265349051429,-30.25,-34.1875,-13.3125
1535265349074634,-36.25,-20.4375,1.8125
1535265349095545,-34.375,-13.5625,-2.4375
1535265349111592,7.8125,-6.75,-8.875
1535265349134563,52.25,-5.625,-12
1535265349156940,57.4375,-19.0625,-12.125
1535265349171473,24.875,-32.25,-9.6875
1535265349194533,-22.1875,-37.125,4.875
1535265349217094,-15.1875,-24.1875,8.5625
1535265349231887,-6.625,-10.3125,6.0625
1535265349254694,-2,-2.875,-0.9375
1535265349277258,11.0625,0.5625,5.0625
1535265349291293,0.3125,-6.8125,7.75
1535265349314353,0.3125,-19.0625,10.5
1535265349337019,-0.9375,-16.0625,4.375
1535265349351589,3.6875,-20,10.625
1535265349374612,14.1875,-21.75,4.1875
1535265349397174,17.3125,-11.875,8.6875
1535265349419733,0.6875,-6.25,2.6875
1535265349434271,-5.5,-4.5625,6.3125
1535265349464368,-5,-4.5625,0.875
1535265349477888,-0.1875,2.375,-8.125
1535265349494467,7.4375,6.6875,-9.875
1535265349517072,15.4375,3.875,-8.5625
1535265349538049,18.8125,1.0625,-5.125
1535265349554899,16.625,-5.8125,-4.25
1535265349577168,20.8125,-14.8125,-6.0625
1535265349598206,23.625,-17.4375,-5.6875
1535265349614752,4.5,-18,-5.0625
1535265349636980,-2.25,-18.8125,-4.0625
1535265349659521,4.25,-13.5,-7.6875
1535265349674059,13.4375,-3.5625,-9.25
1535265349697123,7.1875,-0.8125,-5.25
1535265349718222,9.25,1.3125,-7.9375
1535265349734765,20.6875,7.6875,-9.75
1535265349757440,12.625,4.5625,-9.8125
1535265349778413,7.125,0.125,-7.9375
1535265349794716,20.0625,-4.4375,1.25
1535265349816978,6.5,-5.0625,-2
1535265349839564,4.3125,-4.125,-2.625
1535265349854076,-25.625,-9.75,1.9375
1535265349877152,-2.375,-1.4375,-1.9375
1535265349898197,1.9375,3.0625,1.9375
1535265349913736,-10.875,-0.375,0
1535265349937300,-5.5625,-1.75,-3.375
1535265349959771,3.125,0.6875,-2.875
1535265349974397,2.9375,0.1875,-3.4375
1535265349996957,-2.375,-1.125,-3
1535265350018014,1,2.4375,-0.3125
1535265350034717,-4.6875,3.25,1
1535265350057117,-6.9375,1.8125,-0.4375
1535265350078173,-11.0625,1.1875,-2.375
1535265350094717,-8.125,2.4375,-4.75
1535265350117276,-3.75,4.3125,-5.9375
1535265350139372,0.25,5.1875,-5
1535265350154374,2.125,5.1875,-3.3125
1535265350176935,-2.625,2.5,-3.625
1535265350199495,-7.75,0.1875,-3.8125
1535265350214536,-0.8125,-0.75,-0.9375
1535265350237097,2.125,-0.8125,-1.6875
1535265350260158,-1.6875,-1.25,0.3125
1535265350273693,-2.6875,-0.375,0.5
1535265350297258,-3.3125,2.9375,0.8125
1535265350319409,-5,2.5625,0
1535265350340904,-3.5,-0.5625,1.6875
1535265350357003,-1.9375,-1.6875,1.6875
1535265350379476,2.1875,-0.5,-0.5625
1535265350394016,4.6875,-0.875,-1.75
1535265350417077,4.25,-0.75,-1.375
1535265350439637,1.375,-0.125,-2.125
1535265350454176,2.75,3.125,1.375
1535265350477237,-1.6875,-0.625,6.625
1535265350499742,-16.375,-9.0625,5.125
1535265350513833,-16.9375,-8.125,0.875
1535265350537395,-6.5,-2.4375,-0.25
1535265350559686,1.25,0.5,-1.1875
1535265350573823,6.75,-0.0625,-0.375
1535265350597282,6.6875,-3.625,-0.0625
1535265350619344,-6.125,-5.1875,-2.625
1535265350625358,-6.5625,-2.625,-2.4375
1535265350642904,-5.6875,-1.25,0.5625
1535265350662481,-7.6875,-1.25,-0.875
1535265350685140,-3.4375,1.5625,-3
1535265350703063,-1.8125,2.5,-3.625
1535265350722616,-0.25,0.875,-3.3125
1535265350745174,-1.75,-1.875,-0.4375
1535265350763466,-2.8125,-3.1875,2.0625
1535265350782776,-6.625,0.25,-0.0625
1535265350804836,-2.875,4.625,-2.125
1535265350822920,5.6875,3.75,0.5625
1535265350842438,7,-2.3125,2.5625
1535265350865029,2.4375,-5.5,2.125
1535265350883042,4.4375,-1.5,-1.4375
1535265350905101,-4,-1.5625,-2.625
1535265350925154,-4.6875,-1.6875,-0.9375
1535265350942702,-4.25,-0.1875,-0.9375
1535265350962769,-4.5,1.375,-2.4375
1535265350985313,-4.4375,3.125,-1.6875
1535265351002863,-0.375,1.0625,1.5625
1535265351022428,-3,-1.125,-1
1535265351045067,-5.1875,-3,-1.1875
1535265351063020,-1.125,-1.375,-2.625
1535265351082573,-0.625,-0.6875,-4.6875
1535265351105215,5.75,-0.0625,-3.5
1535265351128695,6.6875,0.625,-3.75
1535265351142732,0.375,-0.0625,-3.25
1535265351165299,-4.125,0.0625,-1.375
1535265351182844,-7.0625,0.125,-0.5625
1535265351202494,-4.0625,1.0625,-1.3125
1535265351224991,-0.5,2.875,-1.25
1535265351243000,-0.5,4.0625,-2
1535265351262653,3.25,4.4375,-0.375
1535265351285112,4.25,0.625,0.4375
1535265351303160,1,-4.6875,-1.5
1535265351322761,3.4375,-2.8125,-3.3125
1535265351344825,8.625,0.0625,-3.25
1535265351363346,6.625,0.625,-2.625
1535265351382371,5.0625,1.5625,-2.375
1535265351405042,2.5625,1.5625,-2.125
