timestamp,x,y,z
1535253287318113,4,1.9375,-0.125
1535253287341227,7.25,4.875,-3.3125
1535253287363267,7.25,9.625,-3.75
1535253287378288,3.875,12.6875,1.125
1535253287401835,-10.625,19.3125,8
1535253287423393,-10.1875,22.125,13.375
1535253287446956,-5.0625,21.875,14.25
1535253287492098,-8.125,21.25,11
1535253287499095,-7.6875,22.4375,11.125
1535253287511127,-11.3125,23.3125,11
1535253287522165,-24.0625,25.6875,14.625
1535253287547245,-38.375,26.3125,15.875
1535253287574818,-42.875,23.5625,17.25
1535253287626456,-40.625,21.625,22.375
1535253287627458,-36.9375,20.6875,27.9375
1535253287635480,-35.3125,19.6875,31.5
1535253287643500,-33.8125,18.1875,37.25
1535253287663053,-20.75,20.4375,45.6875
1535253287685613,-3.0625,21.3125,51.1875
1535253287703661,14.4375,14.5,54.25
1535253287723213,20.125,7.125,51.3125
1535253287745272,21.4375,5,53.4375
1535253287763334,15.75,4.5625,56.6875
1535253287782872,17.8125,-1.5625,53.4375
1535253287805431,24.4375,-7.6875,51.5
1535253287823479,26.9375,-4.0625,48.5
1535253287843032,19.625,-1.5625,43.875
1535253287865592,22.6875,-2.625,31.25
1535253287883641,28.5625,-2.125,41
1535253287903192,6.5,3.875,28.4375
1535253287925752,-7.5,5.5625,13.5
1535253287943299,-9.9375,4.8125,7.6875
1535253287963095,-34.8125,2.25,2
1535253287985410,-34,7.5,-16.0625
1535253288003459,1,8,0.25
1535253288023010,-27.1875,12.5625,-2.4375
1535253288045571,-39.9375,16.875,0.5625
1535253288063618,-35.5625,10.3125,-0.125
1535253288084690,-28.5,5.3125,0.5625
1535253288105735,-36,5.0625,4.375
1535253288123680,-24.375,4.5625,5.375
1535253288144333,-13.125,5.125,4.8125
1535253288165434,-18.5625,8.6875,4.5625
1535253288183437,-20.125,12.1875,4.625
1535253288204495,-23.8125,15.0625,5.1875
1535253288225610,-25.625,14.875,4.75
1535253288243597,-23.4375,16.875,8.6875
1535253288264654,-42.75,18.4375,7.0625
1535253288285709,-74.375,9.0625,-0.8125
1535253288303294,0.6875,-10.1875,2.5
1535253288324316,-4.3125,-10.3125,8.5
1535253288345368,-16.8125,-5.5,4.3125
1535253288363417,-5.75,-6,8.375
1535253288384472,-19.6875,0.9375,11.875
1535253288405532,-29,3.625,15.8125
1535253288423605,-29.0625,0.1875,15.4375
1535253288444696,-12.875,0.8125,8.625
1535253288465688,-10.625,-0.0625,7.5
1535253288483235,-16.125,1.6875,10
1535253288510307,-10.5625,2.9375,1.9375
1535253288527122,-5.75,2,3.6875
1535253288543395,-6.625,1.8125,9.4375
1535253288564986,4.6875,3.875,2.25
1535253288586363,16.4375,6.0625,7.25
1535253288610072,19.4375,5.1875,7.8125
1535253288631128,14.8125,3.8125,21.5625
1535253288647694,-48.0625,7,13.1875
1535253288670380,-68.3125,0.8125,30.125
1535253288691369,-55.8125,-0.125,14.9375
1535253288707909,-4.75,-7.9375,5.625
1535253288730195,11.8125,-11.5625,-5.875
1535253288744652,-18.625,-6.625,2
1535253288767512,-60.3125,-7.0625,-3.625
1535253288790074,-58,-3.5,-1.875
1535253288811130,-15.6875,-6.4375,-3.3125
1535253288827672,17.375,-14.1875,-5.8125
1535253288848729,12.9375,-10.875,6.8125
1535253288864276,-49.9375,41.3125,18.1875
1535253288887832,-25.125,25.25,-7.625
1535253288909892,26.125,3.6875,14.375
1535253288931458,54.4375,-2.75,2.5625
1535253288947491,21.4375,-3.6875,7.8125
1535253288970052,-2.25,3.1875,0.6875
1535253288991440,0.25,2.5625,3.125
1535253289007652,-11.5,11.6875,-0.875
1535253289030212,-5.625,4.375,1.125
1535253289044249,-5.4375,0.8125,-0.75
1535253289067814,-5.625,-1.8125,-0.8125
1535253289090374,-3.0625,-0.3125,-0.3125
1535253289104409,-7.25,1.9375,-0.875
1535253289128473,-5.5,1.5,1.3125
1535253289150363,-3.375,2.1875,0.3125
1535253289171087,-0.8125,2.4375,0.6875
1535253289187631,1.25,3.375,0.0625
1535253289210191,-1.3125,5.125,-0.75
1535253289231246,2.0625,3.9375,-0.4375
1535253289247790,-1.25,2.375,-0.9375
1535253289270351,-10.875,3.5,-0.75
1535253289298926,-7.5,1.6875,0.8125
1535253289307450,-4.8125,1.625,0.125
1535253289337529,-6.875,3.5,0.3125
1535253289352570,-5.3125,3.875,-0.0625
1535253289367610,-1.8125,1.75,0.75
1535253289390672,-1.6875,2.8125,1.5625
1535253289412729,-3.4375,3.75,0.125
1535253289427770,1.8125,3.8125,-0.375
1535253289450403,7.875,3,0.4375
1535253289472545,3.8125,3.5,1.5
1535253289487005,0.875,4.875,-0.1875
1535253289510056,4.5,3.8125,-0.25
1535253289531231,4.625,1.75,-0.5625
1535253289547657,-2.5,1.75,-1.625
1535253289570394,0.3125,0.375,-0.625
1535253289591274,2.1875,-0.375,0.5
1535253289607880,-1.125,-1.0625,1.25
1535253289630407,1.3125,-1.6875,2.1875
1535253289658956,0.5,-0.625,2.1875
1535253289667478,-3.25,-1.0625,1.4375
1535253289690040,-0.3125,-0.9375,-0.1875
1535253289711595,0.625,-0.3125,-0.4375
1535253289727638,-7.1875,-0.125,1.0625
1535253289750200,-13.6875,-0.8125,0.875
1535253289771253,-14.625,-0.875,1.5
1535253289787822,-9.125,-1.4375,0.75
1535253289810357,-4.375,-0.625,0.1875
1535253289832414,-0.125,0.5625,-0.25
1535253289855014,5.5,1.1875,-0.8125
1535253289870014,9.8125,0.8125,-0.0625
1535253289892574,6.875,1.375,-0.125
1535253289907639,4.875,0.5625,0.1875
1535253289930174,0.9375,-0.125,-0.6875
1535253289953273,-1.875,-0.3125,-1.6875
1535253289966891,-3.0625,-0.25,-2.4375
1535253289990334,0.0625,0.25,-2.1875
1535253290012894,1.75,0,-1.375
1535253290026932,2.5625,-0.1875,-1.625
1535253290050010,6.4375,-0.5625,0.6875
1535253290072552,6.5,-1,0.5625
1535253290087092,5.375,0.375,-0.5
1535253290110153,8.3125,-0.75,-0.375
1535253290132715,5.6875,0.375,-0.8125
1535253290147251,1.375,1.875,-0.5
1535253290177835,1.25,2.8125,-0.3125
1535253290198888,5.1875,2.125,-0.375
1535253290206910,4.6875,1.375,-1.0625
1535253290229971,6.5,-0.375,-0.4375
1535253290252531,8.5625,-0.6875,0
1535253290273588,8.8125,0.5,-0.25
1535253290290131,8.9375,1.125,-0.375
1535253290312692,9.6875,0.6875,-0.25
1535253290333801,4.5625,0.875,-0.625
1535253290350292,4.375,0.4375,-0.75
1535253290372914,5.5625,0.3125,-0.6875
1535253290393406,1.0625,0.8125,-1.375
1535253290409951,-1.5,0.5625,-1.375
1535253290432513,-2.125,-0.125,-1.9375
1535253290453570,-0.125,-0.125,-1.3125
1535253290470111,2.625,-0.1875,-1.125
1535253290498781,3.6875,-0.1875,-0.875
1535253290513727,3.375,-0.75,-0.125
1535253290530270,2.625,-0.9375,-0.25
1535253290552913,4.8125,-1.3125,-0.4375
1535253290573886,4.5,-1.125,-0.1875
1535253290590431,2.9375,-0.8125,0.0625
1535253290612488,1.25,-0.25,0.1875
1535253290633572,2.875,-0.375,0.5
1535253290650110,3.125,-0.6875,0.8125
1535253290672651,2,-1.25,0.8125
1535253290693706,1,-0.0625,0.625
1535253290710249,1,-0.5,0.5
1535253290732812,-0.5,-0.375,0.0625
1535253290755443,0.3125,-1.25,0.25
1535253290777433,-0.5625,-0.625,0.375
1535253290792468,0.1875,-0.875,0.5
1535253290815153,-0.9375,-0.125,0.5
1535253290830069,1.75,-1.8125,0.6875
1535253290852630,0,-1.625,0.5625
1535253290875202,0.1875,-1.4375,0.1875
1535253290890730,0.6875,-1.25,0.3125
1535253290912500,0.6875,-0.9375,0.125
1535253290935066,-0.6875,-1.875,-0.375
1535253290949756,-1.375,-1.5625,-0.5
1535253290972660,-0.1875,-1.5,-0.6875
1535253290995219,-1.8125,-1.25,-0.875
1535253291009256,0,-0.125,-0.375
1535253291032896,0.6875,0.6875,0
1535253291055378,1.8125,0.3125,0
1535253291069416,3.8125,0,-0.375
1535253291092546,4.0625,0.3125,-0.5
1535253291115038,2.8125,-0.25,-0.4375
1535253291129655,1.625,-0.375,0.125
1535253291152678,-1.5,-0.0625,-0.25
1535253291175201,-2,0.5625,-0.25
1535253291189779,-0.5625,0,0.125
1535253291212798,-1.375,-0.125,-0.125
1535253291235360,-0.5,-0.5625,0.125
1535253291256413,1.25,-0.8125,0.1875
1535253291272728,1.9375,-0.6875,0.5
1535253291295017,1.125,0.125,0.375
1535253291316078,-0.5,0.8125,-0.3125
1535253291332616,0.25,0.1875,-0.25
1535253291355177,0.5625,-0.3125,-0.3125
1535253291376232,0.875,0.3125,-0.5
1535253291392777,0.8125,0.5,-0.6875
1535253291415439,-0.0625,1,-0.875
1535253291436392,1.5625,0.875,-1.0625
1535253291452497,3.8125,-0.5625,-0.8125
1535253291475022,2.3125,-0.125,-0.8125
1535253291496057,3.0625,0.125,-1.125
1535253291512617,3.875,-0.5625,-0.25
1535253291535156,3.25,-0.375,-0.125
1535253291556211,2.5,-0.125,0
1535253291572757,1.1875,-0.3125,-0.0625
1535253291602916,1.625,-0.6875,0.125
1535253291615870,1.3125,-0.875,0.0625
1535253291632459,0,-0.1875,0.1875
1535253291654974,-1.25,-0.25,0
1535253291676035,-1.6875,-0.125,0.0625
1535253291692573,-1.3125,0,0
1535253291715227,0.25,0,-0.125
1535253291737694,1.125,-0.625,-0.0625
1535253291752885,1.4375,-0.875,-0.125
1535253291775296,-0.0625,-0.8125,-0.125
1535253291797901,0.8125,-0.3125,-0.125
1535253291812394,1.375,-1.375,-0.375
1535253291842514,1.3125,-1.625,-0.125
1535253291864038,0.75,-1.5625,0.3125
1535253291872053,0.25,-0.875,0
1535253291895169,1.3125,-1,-0.25
1535253291917803,0.875,-1.4375,0.0625
1535253291932214,0.5625,-0.9375,0
1535253291955365,0.6875,-0.8125,-0.125
1535253291977835,0.1875,-1.125,-0.4375
1535253291991873,-0.625,-0.8125,0
1535253292015438,-0.25,-0.375,-0.25
1535253292037996,-0.25,-0.5625,-0.3125
1535253292052032,0.875,-0.25,-0.3125
1535253292075092,1.6875,-0.375,-0.1875
1535253292097653,1,0.0625,0
1535253292112260,1.5,-0.3125,-0.25
1535253292135323,1.625,-0.8125,-0.125
1535253292157526,-0.25,-0.625,-0.25
1535253292171856,-0.5,0,-0.5
1535253292195412,-0.3125,-0.5625,-0.75
1535253292217976,1.625,-1.1875,-0.4375
1535253292239029,1.8125,-0.875,-0.8125
1535253292255279,1.8125,-0.4375,-0.8125
1535253292277632,2,-0.0625,-1.0625
1535253292298686,3.625,-1.1875,-0.625
1535253292314229,2.375,-1.1875,-0.5
1535253292337800,0.3125,-0.25,-0.75
1535253292358878,1.0625,-0.5,-0.75
1535253292375403,0.3125,-0.25,-0.5625
1535253292397953,0.3125,-0.75,-0.5
1535253292420515,0.125,-0.4375,-0.4375
1535253292441577,0.1875,-0.1875,-0.25
1535253292457752,1.4375,-0.125,-0.3125
1535253292478667,1.9375,-0.3125,-0.25
1535253292495399,1.1875,-0.375,-0.25
1535253292517903,1,-0.0625,-0.1875
1535253292538829,0.375,-0.1875,0.0625
1535253292555374,-0.5,-0.375,-0.0625
1535253292577428,-1.25,-0.4375,0
1535253292599001,-0.3125,-0.125,-0.125
1535253292615040,0.5625,0.125,-0.0625
1535253292637597,0.25,-0.25,-0.25
1535253292658995,0,-0.3125,0.125
1535253292675192,-0.75,0.0625,0
1535253292697751,0.75,0.1875,-0.0625
1535253292720310,0.5,-0.4375,0.5625
1535253292735347,-0.625,0.125,0.1875
1535253292757924,-0.25,0,-0.125
1535253292780468,0.75,-0.125,-0.3125
1535253292795009,-1.1875,0.6875,-0.5
1535253292817576,-1,0.8125,-0.5
1535253292840133,-0.5625,0.125,-0.375
1535253292854791,0.25,-0.625,0.25
1535253292877853,1.3125,-0.75,0.25
1535253292900411,0.375,0.0625,-0.25
1535253292914446,1.5,-0.5,-0.4375
1535253292938015,1.1875,-0.875,-0.125
1535253292960105,-0.5625,-0.375,-0.1875
1535253292974740,0,-0.5,-0.125
1535253292997768,0,-0.9375,-0.0625
1535253293020306,-0.4375,0.125,-0.125
1535253293034347,1.3125,-0.625,0.0625
1535253293057409,0.25,-0.375,-0.0625
1535253293079965,-0.0625,-0.0625,-0.125
1535253293094551,0.6875,-0.25,0.0625
1535253293117564,0.6875,-0.375,0.25
1535253293140126,-0.1875,-0.375,-0.1875
1535253293161179,-0.6875,0.125,-0.1875
1535253293177724,0.4375,-0.0625,-0.25
1535253293200324,0,-0.125,0.0625
1535253293221337,0.875,-0.5,0.5
1535253293244959,0.3125,0.125,0.0625
1535253293260052,0.3125,0.375,-0.125
1535253293281558,0.875,-0.25,-0.125
1535253293297769,0.5,-0.5,-0.1875
1535253293320186,-0.0625,-0.5,0.3125
1535253293341324,-0.25,0.0625,0.125
1535253293357760,-0.1875,0.125,-0.0625
1535253293380317,0.5,-0.1875,0
1535253293385340,-0.5,0,0
1535253293407891,-0.6875,-0.0625,0.0625
1535253293423433,-0.125,0.1875,-0.125
1535253293445493,0.75,-0.125,-0.125
1535253293468052,-0.3125,-0.0625,0.125
1535253293483092,-1.0625,0.25,0
1535253293507167,-1.0625,0.125,-0.125
1535253293530722,0.6875,-0.0625,0.0625
1535253293544646,-0.1875,0.0625,-0.125
1535253293565810,0.375,0,0.125
1535253293587974,-0.8125,0.25,-0.1875
1535253293602911,-0.125,-0.125,0.0625
1535253293625472,1.1875,-0.6875,0.3125
1535253293648059,0,-0.4375,0.3125
1535253293663073,-0.375,0.125,0.125
1535253293685649,-0.1875,0.25,0.1875
1535253293708250,1,-0.6875,0.25
1535253293723244,0.6875,-0.5625,0.0625
1535253293745335,-0.375,0.0625,0.0625
1535253293768428,-0.5625,0.125,0.0625
1535253293782995,-1.375,0.4375,0
1535253293805548,0.3125,-0.25,0.25
1535253293828258,0.75,-0.3125,0.0625
1535253293843149,-0.5,0.375,0.125
1535253293865713,0.0625,0.125,0.1875
1535253293888362,-0.25,0.375,0.0625
1535253293903010,-1.375,-0.0625,-0.3125
1535253293925569,1,-0.1875,0.0625
1535253293948027,-1.375,-0.125,0.3125
1535253293963067,0.125,-0.125,0.375
1535253293985673,1.375,-0.5625,0.25
1535253294008191,-0.5625,0.0625,0
1535253294023231,0.4375,0.125,0
1535253294045792,0.625,0.0625,-0.0625
1535253294068361,0.75,-0.4375,0.0625
1535253294084893,0.25,-0.4375,0.4375
1535253294105454,-0.625,0.375,0.0625
1535253294128010,-0.5,0.25,-0.0625
1535253294143125,-1,-0.4375,-0.1875
1535253294168616,-0.5625,-0.25,-0.0625
1535253294188199,-0.75,0.0625,0.0625
1535253294203207,-1.5,0.3125,-0.1875
1535253294225271,0.125,0.375,-0.25
1535253294248386,0.8125,-0.1875,-0.125
1535253294264369,0.0625,-0.0625,-0.25
1535253294285461,-1,0.0625,-0.0625
1535253294308024,0.3125,-0.125,0
1535253294324535,-0.4375,0,-0.4375
1535253294353140,-0.125,-0.4375,-0.125
1535253294368189,0.1875,-0.375,0
1535253294386193,-0.0625,0.3125,0
1535253294405746,0.625,-0.0625,-0.375
1535253294427803,0.6875,-0.0625,-0.1875
1535253294444349,0.125,0.0625,-0.1875
1535253294465406,-0.875,0,-0.25
1535253294487963,-1.0625,0.0625,-0.1875
1535253294504516,-0.3125,-0.1875,0
1535253294525687,-0.8125,-0.25,0.0625
1535253294548124,0.6875,-0.125,0.125
1535253294566174,0.5625,-0.0625,0.125
1535253294585730,0.0625,0,-0.125
1535253294608290,-0.125,-0.1875,-0.0625
1535253294625960,-0.75,0,0
1535253294645388,-1.875,0.5625,-0.1875
1535253294675512,-0.25,-0.125,-0.1875
1535253294685994,0.4375,-0.0625,0
1535253294705589,-0.25,0.0625,0.125
1535253294728147,0.625,0,-0.0625
1535253294746164,0.875,-0.25,-0.125
1535253294765740,0.75,-0.1875,-0.375
1535253294788264,-0.3125,-0.0625,-0.375
1535253294805811,-1.0625,-0.125,-0.1875
1535253294825935,-0.5625,0.1875,-0.25
1535253294847926,0.75,-0.25,-0.4375
1535253294865972,-0.0625,-0.25,-0.1875
1535253294885552,-0.125,-0.0625,-0.125
1535253294908110,0.9375,0.0625,-0.125
1535253294926242,-0.4375,0,-0.3125
1535253294945789,-0.625,0.0625,-0.0625
1535253294967883,0.5625,-0.125,0.125
1535253294985897,0.9375,-0.25,-0.125
1535253295005448,1.1875,-0.3125,-0.25
1535253295028008,-0.125,-0.0625,-0.3125
1535253295046058,0.5625,-0.0625,-0.25
1535253295065733,0,-0.25,-0.25
1535253295088304,0.0625,-0.1875,-0.3125
1535253295105827,0.5625,-0.25,-0.1875
1535253295125408,0.0625,-0.1875,-0.3125
1535253295147933,-0.25,-0.0625,-0.125
1535253295165982,0.8125,-0.3125,-0.3125
1535253295193091,0.0625,-0.5,-0.375
1535253295208149,0.6875,-0.3125,-0.1875
1535253295225641,-0.8125,-0.125,0
1535253295247197,-0.375,-0.1875,-0.1875
1535253295268324,-0.3125,0.0625,-0.375
1535253295285801,0.25,-0.1875,-0.125
1535253295306948,0.25,-0.1875,-0.125
1535253295328044,-0.75,-0.0625,0
1535253295346043,1.0625,-0.1875,0.125
1535253295367098,0.375,-0.1875,0
1535253295388159,-0.25,-0.1875,0
1535253295406160,-1.25,0.4375,-0.125
1535253295426756,-1.375,0.375,-0.125
1535253295448315,-0.375,-0.1875,-0.0625
1535253295473998,-0.75,0.0625,-0.0625
1535253295492973,-0.25,-0.1875,0.0625
1535253295508023,0.625,0.0625,0.1875
1535253295526075,0.3125,-0.0625,-0.0625
1535253295548771,0.125,-0.375,0.0625
1535253295568134,0,-0.0625,0.0625
1535253295586186,-0.1875,-0.0625,0
1535253295608741,0.375,-0.0625,-0.0625
1535253295628297,-0.1875,0.125,-0.125
1535253295645977,-0.6875,0,-0.1875
1535253295668401,0.5625,0.0625,0
1535253295687952,0,-0.0625,-0.25
1535253295706000,-0.125,0.1875,-0.1875
1535253295729105,-0.0625,0.3125,-0.375
1535253295748114,0.125,-0.125,-0.1875
1535253295772176,0.375,-0.1875,-0.1875
1535253295788278,0,-0.0625,-0.0625
1535253295808312,-1.0625,0.625,-0.3125
1535253295825824,0.25,0,-0.5
1535253295848379,0.6875,-0.375,-0.3125
1535253295867932,-0.5625,-0.125,0.125
1535253295885980,-0.3125,0.375,0.125
1535253295908590,0.625,0.0625,-0.125
1535253295928095,0.75,-0.125,-0.1875
1535253295946138,-0.25,-0.125,0
1535253295968705,-0.6875,0.0625,0.3125
1535253295987746,0.1875,0.125,0.125
1535253296006325,0.125,0.25,-0.1875
1535253296028858,0,0,-0.125
1535253296050968,0.8125,-0.1875,0.0625
1535253296066008,0.625,-0.0625,0.0625
1535253296088569,-0.0625,0,-0.0625
1535253296109572,-0.0625,0.0625,-0.0625
1535253296126123,0.125,-0.1875,-0.125
1535253296148677,-0.3125,0,0
1535253296169236,0.625,-0.125,-0.125
1535253296185831,0.4375,-0.1875,-0.125
1535253296208365,0.125,-0.0625,-0.1875
1535253296229687,-0.3125,0.0625,-0.1875
1535253296245999,0,-0.125,-0.0625
1535253296268495,1.125,-0.375,0.0625
1535253296289552,0.625,-0.1875,-0.1875
1535253296305093,0,-0.125,-0.125
1535253296328154,0,0.0625,-0.0625
1535253296348710,-0.125,-0.125,0
1535253296365252,0.125,-0.125,-0.0625
1535253296387853,-0.5625,0.1875,0
1535253296408910,-0.75,0.1875,-0.25
1535253296431428,-0.0625,-0.25,0.0625
1535253296447471,-0.3125,0,0.1875
1535253296470286,-1.25,0.125,0.0625
1535253296485224,-0.3125,0.0625,0.125
1535253296507632,0.125,0,-0.125
1535253296530191,0.4375,-0.1875,-0.0625
1535253296544229,-1,0.125,0.0625
1535253296567797,-0.1875,0.3125,-0.1875
1535253296606400,0.375,-0.3125,-0.5
1535253296618934,-0.125,-0.3125,-0.3125
1535253296627454,0.5,-0.1875,0.125
1535253296650011,0.4375,-0.0625,-0.25
1535253296664550,0.6875,0.125,-0.375
1535253296687696,0.4375,-0.3125,-0.25
1535253296710553,0.75,-0.3125,-0.0625
1535253296724297,-1.0625,0.25,-0.125
1535253296747854,-1.0625,0.0625,-0.1875
1535253296770144,0.3125,-0.1875,-0.0625
1535253296784455,0.3125,-0.0625,-0.125
1535253296807515,0.5625,-0.125,0.0625
1535253296830074,0.0625,0,0
1535253296844698,0,0.125,0.0625
1535253296867678,-0.25,0.125,0.0625
1535253296890233,-0.3125,0,-0.1875
1535253296911288,0,0.125,-0.25
1535253296927833,0.625,-0.3125,0
1535253296950392,-0.3125,-0.1875,0
1535253296971474,0.8125,-0.375,0
1535253296987736,1.125,-0.25,0
1535253297010056,-0.375,0.1875,-0.1875
1535253297031110,0.1875,0.0625,0
1535253297047652,0.8125,-0.1875,-0.125
1535253297070435,0.4375,-0.125,-0.1875
1535253297091302,0.25,0,0
1535253297107813,-0.625,0.25,0
1535253297129878,-0.625,-0.1875,-0.25
1535253297158446,0.4375,-0.3125,-0.1875
1535253297167632,-0.0625,-0.1875,-0.0625
1535253297190030,-0.125,0.125,-0.125
1535253297211137,-0.5625,0.4375,-0.125
1535253297227682,0.6875,-0.25,0.1875
1535253297250190,0.5,0,-0.375
1535253297271291,-0.25,-0.1875,-0.0625
1535253297287796,0.5625,-0.125,-0.0625
1535253297310353,-1.1875,0.1875,-0.25
1535253297331407,0,-0.375,0
1535253297347953,0,0.0625,-0.25
1535253297370096,0.3125,-0.3125,-0.0625
1535253297391081,0.375,-0.25,-0.125
1535253297413663,0.1875,0.125,-0.4375
1535253297437690,1,-0.375,-0.375
1535253297452842,0.375,-0.4375,-0.375
1535253297467917,0.1875,-0.5,0
1535253297490570,-0.5,-0.0625,-0.0625
1535253297513006,-0.5625,0.1875,-0.5
1535253297527932,-0.0625,0.0625,-0.375
1535253297549988,0.1875,-0.1875,-0.1875
1535253297572548,-0.125,-0.125,-0.125
1535253297587186,-0.6875,0.0625,0.0625
1535253297610151,0.5,0,-0.1875
1535253297632712,-0.125,0.25,-0.375
1535253297647246,-0.3125,0.1875,-0.5
1535253297670309,-0.0625,0,-0.1875
1535253297692870,-0.25,0.1875,-0.125
1535253297713930,0.375,-0.1875,0
1535253297729969,0.75,0.125,-0.4375
1535253297752528,0.875,-0.125,-0.6875
1535253297767189,-0.5,0.125,-0.5625
1535253297790128,-0.125,0.25,-0.5625
1535253297812686,0.6875,-0.5625,-0.3125
1535253297827091,0,-0.0625,-0.25
1535253297850286,0.8125,-0.25,-0.0625
1535253297872621,0.875,-0.25,0
1535253297893907,-0.125,-0.1875,-0.1875
1535253297910448,-0.5625,-0.1875,0.0625
1535253297932654,0.3125,-0.0625,0
1535253297961080,0.25,-0.1875,-0.25
1535253297971611,-0.3125,0.25,-0.25
1535253297992665,-0.4375,0.0625,0.25
1535253298013761,0.1875,-0.125,0.25
1535253298030292,-0.25,0,0.25
1535253298052862,-0.5625,0.0625,0.0625
1535253298073881,-0.3125,0.0625,0.125
1535253298089926,-0.25,-0.0625,0
1535253298112521,-0.3125,-0.1875,0.1875
1535253298133623,0,0.0625,0.3125
1535253298150139,0.1875,0.125,0.25
1535253298172646,-0.9375,0.3125,-0.125
1535253298193701,0.5625,-0.125,0
1535253298210246,0.6875,-0.6875,0.0625
1535253298232805,-1.4375,0.4375,0
1535253298261424,-0.4375,-0.4375,0.4375
1535253298269907,-0.4375,0.5625,0.1875
1535253298292464,0.1875,0.125,0.125
1535253298313570,1.0625,-0.5,0.1875
1535253298330071,-0.6875,0.0625,0.125
1535253298352624,-0.5,-0.3125,0.3125
1535253298375185,-0.0625,0.5625,0.0625
1535253298390224,-1.0625,0.3125,-0.0625
1535253298412948,-0.5,0.125,0.1875
1535253298435369,-0.4375,0.25,0.1875
1535253298449981,0.375,-0.5,0.25
1535253298472448,0.75,0.0625,0.25
1535253298495008,0,-0.25,0.125
1535253298510043,-0.4375,0.25,-0.125
1535253298532604,-1.1875,0.25,0.0625
1535253298561222,0.0625,-0.375,0.25
1535253298569701,-0.25,0,0.25
1535253298592764,0.3125,0.1875,0.125
1535253298615323,0.25,0.0625,0
1535253298629363,-0.125,-0.125,0
1535253298652421,-0.4375,0,0.1875
1535253298675110,-0.9375,0.0625,0
1535253298689519,-0.875,0.5,0
1535253298712773,0.875,-0.0625,0
1535253298735278,0.3125,-0.25,-0.1875
1535253298749675,-0.125,-0.1875,0.25
1535253298772882,0.0625,-0.1875,0.375
1535253298794939,-0.6875,0.5,-0.0625
1535253298823513,-0.5625,0,-0.125
1535253298832539,-0.125,-0.125,0.0625
1535253298855190,-1.4375,0.125,-0.0625
1535253298876192,0.875,-0.5,0.1875
1535253298892747,0.8125,-0.0625,0.125
1535253298915258,-0.5,0.1875,0.0625
1535253298936352,-0.1875,0.1875,-0.0625
1535253298952939,0.0625,-0.375,0.125
1535253298975003,0.8125,-0.5,0.25
1535253298996555,-1,-0.125,0.0625
1535253299012597,-1.1875,0.3125,0.25
1535253299035158,-0.3125,0.3125,0.0625
1535253299056327,0.0625,-0.0625,0.0625
1535253299078772,0.375,-0.1875,0.1875
1535253299102837,-0.0625,-0.1875,0
1535253299116373,-0.9375,0.1875,-0.1875
1535253299132917,0.375,-0.375,0.125
1535253299154976,-0.625,-0.3125,0.0625
1535253299176037,-1.8125,-0.25,0
1535253299192674,-2.75,-0.3125,-0.1875
1535253299215135,0.0625,-1.125,-0.5625
1535253299236191,2.75,-3.125,-0.8125
1535253299252737,-1.5625,-3.3125,-0.5625
1535253299275299,-1.6875,-1.875,-0.625
1535253299297854,0.375,-3.0625,-0.3125
1535253299312651,-0.5625,-3.625,-0.6875
1535253299335455,1.8125,-4.0625,-0.1875
1535253299357613,4.3125,-4.375,-0.25
1535253299380131,3.375,-4.25,-1.4375
1535253299395114,6.25,-3.375,-2
1535253299417796,12.75,-3.9375,-3.0625
1535253299431712,10.5,-3.8125,-3.125
1535253299455275,9.4375,-1.5625,-5.4375
1535253299477835,7.25,-6.0625,-7.3125
1535253299491871,18.4375,-1.3125,-1.0625
1535253299514933,20.75,1.1875,-3.9375
1535253299537493,14.3125,4.3125,-2.875
1535253299558552,11.375,5.875,-0.6875
1535253299575092,7.375,7.0625,0.25
1535253299597868,-3,5.8125,-1.4375
1535253299612199,6.4375,4,-3.5625
1535253299635253,2.5,3.8125,-5.1875
1535253299658350,-6.6875,2.25,-2.625
1535253299671947,-5.1875,-1.125,-0.375
1535253299694942,-2.625,-3.625,0
1535253299717573,-2.875,-3.5625,-0.625
1535253299732041,-1.5,-4.0625,1.9375
1535253299755338,-3.125,-3.9375,3.625
1535253299777661,-2.75,-1.8125,1.9375
1535253299798756,7.0625,-2.625,2.3125
1535253299815260,5.4375,-1.6875,2.4375
1535253299837820,0.9375,-0.375,2.8125
1535253299858878,0.875,-0.625,2.8125
1535253299874921,4.1875,-0.375,0.3125
1535253299897485,4.75,-0.9375,0.75
1535253299919037,-1.5,0.5,-0.1875
1535253299935080,-2.4375,-0.0625,0.25
1535253299957651,-0.625,-1.375,0.375
1535253299978696,-3.9375,-2.125,0.625
1535253299995239,-6.5,-2.4375,1.0625
1535253300017800,-4.375,-2.9375,0.75
1535253300038854,-3.5625,-2.75,0.25
1535253300055399,-5.8125,-1.5,0.0625
1535253300077458,-6.375,-0.4375,0.75
1535253300098514,-4.5,-0.375,1.9375
1535253300115058,-1.75,0,2.1875
1535253300137714,0.1875,1.375,0.6875
1535253300166195,-1.3125,2.9375,0.125
1535253300175295,-0.6875,2.125,0.8125
1535253300198282,1.5,0.8125,0.875
1535253300218836,-0.3125,0.25,1.25
1535253300235379,-3.8125,-0.4375,2.6875
1535253300257945,-6.75,-0.0625,3.5625
1535253300279999,-5.0625,-0.25,1.875
1535253300295040,1,0.25,0.625
1535253300317598,-2.25,1.625,1.625
1535253300339864,-2.9375,1.375,0.0625
1535253300354904,-1.25,0.375,-0.6875
1535253300377570,0.375,0.3125,-1.25
1535253300400029,0.1875,0.5625,-0.6875
1535253300414564,1.1875,0.625,-1.0625
1535253300437625,-0.375,4.125,-0.4375
1535253300466308,4.875,4.8125,-2.625
1535253300474726,4.875,4.25,-2.4375
1535253300497787,3.5625,2.6875,-1.5
1535253300520347,-1.5625,2.5,-0.5625
1535253300541401,-1.6875,1.9375,-0.1875
1535253300557448,-2.75,3.9375,-1.1875
1535253300580004,-2.9375,4.625,-3.875
1535253300594543,-0.4375,3.125,-4.8125
1535253300617603,-0.0625,2.125,-3.0625
1535253300640164,-3.4375,4.0625,-4.3125
1535253300654703,-7.6875,5.9375,-5
1535253300677765,-3.5,5.75,-5.125
1535253300700324,2.3125,4.4375,-4.25
1535253300722883,1.0625,5.625,-4.25
1535253300737931,0.4375,6.4375,-3.75
1535253300766030,1.5,6.5,-5.1875
1535253300781037,5.875,4.375,-4.8125
1535253300803597,6.1875,3.25,-5.8125
1535253300820143,3.9375,3.5625,-7.25
1535253300841259,7.375,2.375,-8.4375
1535253300857788,10.1875,0.6875,-7.8125
1535253300880307,8.5,0.25,-5.8125
1535253300901357,6.5625,2.5,-7.4375
1535253300917400,15,4.8125,-11
1535253300940462,26.5625,6.125,-11.9375
1535253300961546,32.375,6.375,-10.625
1535253300977060,32.875,7.5,-10.875
1535253301000129,32.25,8.625,-9.625
1535253301022681,37.6875,3.875,-8.1875
1535253301045246,47.75,1.3125,-8.1875
1535253301060281,41.5625,5.125,-5.0625
1535253301081450,35.125,5.6875,-3.625
1535253301096881,32.375,10.5625,-3.4375
1535253301119968,40.5625,17.25,-6.25
1535253301141499,62.75,22.5625,-10.625
1535253301157040,87.1875,28.0625,-14.3125
1535253301180103,98.75,35.6875,-18
1535253301202660,106.25,41.9375,-21.0625
1535253301216701,113.813,44.25,-27.8125
1535253301240317,118.063,43.5,-33.0625
1535253301262822,120.563,43.4375,-45.375
1535253301277190,128.188,45.375,-55.3125
1535253301300078,137.625,44.375,-64.1875
1535253301322552,142.125,40.625,-71.9375
1535253301345233,133.625,37.75,-76.5
1535253301360151,123.063,39.0625,-85.0625
1535253301382715,126.938,47.0625,-89.5625
1535253301403773,127.438,45.75,-92.75
1535253301420309,123.875,41.8125,-94.0625
1535253301442873,118.5,38.125,-99.0625
1535253301463940,114.438,35.125,-105
1535253301479973,91.875,31.3125,-106.813
1535253301502535,70,20.5625,-103.938
1535253301525224,61.5625,12.8125,-105.438
1535253301540130,21.3125,10.9375,-105.063
1535253301562690,-6.5,15.875,-92.1875
1535253301583743,2.3125,9.75,-81.25
1535253301600290,13.625,3.0625,-70.875
1535253301622851,13.875,-1.8125,-63.625
1535253301645408,1.6875,-3.6875,-55
1535253301660771,-5.75,-5,-44.375
1535253301682511,-3.375,-8.0625,-35.75
1535253301703563,-1.0625,-11.3125,-26.875
1535253301720107,-3.9375,-12.0625,-19.0625
1535253301742670,-7.9375,-11.1875,-10.8125
1535253301763725,-10.125,-10.5,-2.875
1535253301780270,-9.3125,-11.9375,4.5625
1535253301802830,-9.4375,-14.0625,9.4375
1535253301823384,-14.0625,-15.5625,16
1535253301840429,-25.0625,-15.5,21.875
1535253301862776,-37.25,-16.875,26.9375
1535253301884100,-38.9375,-20,32.8125
1535253301899586,-37.8125,-24.5,37.25
1535253301922647,-36.375,-27.9375,39.9375
1535253301943705,-45.1875,-27.5625,46.8125
1535253301959747,-57.1875,-25.25,54.0625
1535253301982807,-65.375,-24.125,60.375
1535253302003985,-67.875,-29.3125,63.8125
1535253302019602,-62,-32.4375,66.375
1535253302042473,-68.4375,-29.3125,71.875
1535253302063524,-68.1875,-25.5,73.125
1535253302079740,-54.4375,-21.875,72.625
1535253302110146,-19.3125,-24.9375,69.625
1535253302123721,12.9375,-32.1875,62.8125
1535253302155266,25.1875,-29,56.6875
1535253302162786,15.8125,-22.3125,54
1535253302184921,-0.125,-15.4375,52.125
1535253302199382,-12.5,-12.6875,50.25
1535253302222459,-8.125,-14.3125,48.8125
1535253302245003,0.8125,-14.625,46.375
1535253302267564,8.4375,-17.25,43.3125
1535253302282607,6.25,-20.8125,42.9375
1535253302305164,-6.25,-22.3125,45.25
1535253302326222,-23.625,-19.8125,52.25
1535253302342262,-37.6875,-17.875,57.125
1535253302365324,-33.25,-20.4375,56.4375
1535253302386380,-13.0625,-23.1875,54.4375
1535253302402444,5.625,-22.75,51.25
1535253302424984,18.3125,-25.375,46.875
1535253302446040,18.5,-21.75,40.75
1535253302462583,6.25,-12.3125,36.25
1535253302485144,-2.5,-6,31.8125
1535253302506304,1,-3.25,25.1875
1535253302522744,13.5,-4.3125,16.8125
1535253302545302,22.5625,-7.0625,9.8125
1535253302566360,16.25,-5.8125,6.25
1535253302582401,0.8125,-2.8125,5.25
1535253302604960,-9.125,-0.4375,5.1875
1535253302626555,-9.125,-1.375,4
1535253302642642,-4.0625,-3.4375,4.3125
1535253302665189,-0.1875,-4.125,4.5625
1535253302686285,-1,-2.875,4.0625
1535253302702310,-4.25,-1.9375,3
1535253302725283,-6.375,-2.0625,1.5625
1535253302746444,-7.0625,-2.375,-0.6875
1535253302762383,-11.8125,-2.3125,-3.875
1535253302785442,-17.375,-4.6875,-10.5
1535253302806541,-24.875,-7.3125,-16.5
1535253302822540,-39.375,-8.375,-21.125
1535253302828164,-53.6875,-9.6875,-25.375
1535253302850620,-64.4375,-10.1875,-25.625
1535253302873261,-66.875,-15.3125,-25.75
1535253302888214,-62.4375,-18.75,-25.25
1535253302910395,-55.375,-18.1875,-20.9375
1535253302941414,-42.875,-13.8125,-15.5
1535253302949430,-23.9375,-8.9375,-10.5
1535253302970466,-6.5,-5.375,-6.625
1535253302993027,8.9375,-5.0625,-3.0625
1535253303009569,19.9375,-2.3125,-0.0625
1535253303030744,20.3125,2,2.25
1535253303053274,16.125,5.8125,2.5625
1535253303070768,13.25,7,1.5
1535253303090812,12.8125,4.8125,0.5625
1535253303113350,11.25,0.4375,-0.25
1535253303129634,4.5,-0.8125,0.5
1535253303150451,0.375,-0.9375,1
1535253303173004,-1.75,-1.0625,1.375
1535253303188085,-1.125,-2.1875,0.25
1535253303210605,1.125,-1,-0.125
1535253303233167,3.125,0.5625,0.4375
1535253303248205,5.75,1.125,0.25
1535253303278286,8.1875,1.1875,-0.6875
1535253303293356,8.6875,1.5625,0.125
1535253303308370,7.8125,2.25,0.4375
1535253303330940,7.25,2.4375,0.75
1535253303353037,7.875,1.9375,0.4375
1535253303371033,10.125,1.125,-0.9375
1535253303390687,11.5625,3.1875,-2.25
1535253303413143,14.125,5.75,-6.375
1535253303428182,17,5.3125,-9.125
