timestamp,x,y,z
1535253223688080,4.8125,-0.9375,-1.1875
1535253223710909,4.25,-0.0625,-2
1535253223726159,1.5,1.0625,-2.625
1535253223749722,-2.5625,1.8125,-1.3125
1535253223770867,-1.3125,2.0625,0.625
1535253223786053,-1.25,1.125,1
1535253223809436,-1.1875,0.875,2.5
1535253223830937,-0.375,1.75,4.125
1535253223878564,-3,2.4375,4.5
1535253223879567,-1.375,1.75,4.125
1535253223900122,-1.125,1.125,3.8125
1535253223914159,-5,1,3.6875
1535253223929199,-4.4375,0.6875,3.0625
1535253223955268,-1.1875,-0.0625,1.25
1535253224005412,2.125,0.8125,-0.0625
1535253224005904,2.875,0.5,-1.0625
1535253224011919,1.8125,0.5,-1.375
1535253224025455,2.1875,1.125,-0.625
1535253224049018,0.875,1.625,-0.1875
1535253224070575,-1.375,2.5,-0.0625
1535253224085615,-0.3125,2.9375,0.5625
1535253224108224,-0.5,2.75,0.6875
1535253224130735,0.3125,2.25,0.9375
1535253224145806,-1.375,2.625,0.9375
1535253224168336,-1.3125,2.1875,0.875
1535253224190895,-0.375,1.8125,1.875
1535253224205935,0.125,1.8125,2.5
1535253224228040,2,1.8125,3.25
1535253224250555,2.1875,1.375,3.5
1535253224265690,-0.6875,1.1875,4.25
1535253224288154,-1.875,0.5,4.4375
1535253224310714,1.25,0.0625,5
1535253224325754,1.875,0.5,5.0625
1535253224348314,0.4375,0.75,5.125
1535253224370874,0.5,0.1875,6
1535253224385914,0.0625,0.375,8.25
1535253224407973,-3.0625,0.1875,10.375
1535253224430533,-1.5625,0.5,13.0625
1535253224445573,1.3125,1.5625,17.0625
1535253224468177,-0.875,2.6875,20.375
1535253224490693,-1.875,3.5625,23.375
1535253224521776,-1.4375,4.3125,25.125
1535253224528294,-0.0625,4.625,26.3125
1535253224550854,1.125,5.25,27.0625
1535253224565893,0.875,5.5625,29.6875
1535253224587952,0.75,5.6875,32.375
1535253224610511,1.1875,6.1875,31.625
1535253224625553,2.6875,6.9375,31.5
1535253224648112,0.3125,6.5625,33.375
1535253224670672,-1.625,6.625,34.625
1535253224688720,-0.3125,7.4375,34.625
1535253224708272,1.9375,8.1875,35.375
1535253224730832,2.75,7.9375,36.0625
1535253224745872,1,8.75,36.9375
1535253224768433,1.0625,10.3125,38.3125
1535253224790552,3.5,10.1875,39.4375
1535253224807036,4.5,10.875,40.5625
1535253224828091,4.4375,11.9375,42.6875
1535253224850986,4.875,12,45
1535253224873329,6.0625,13.5625,45.75
1535253224888251,7.625,14.4375,46.125
1535253224910811,8.8125,13.1875,46.875
1535253224933371,7.6875,13.75,49
1535253224948411,3.6875,14,50.8125
1535253224970470,2.4375,13.125,50.875
1535253224996068,3.5,12.4375,50.25
1535253225011579,4.3125,11.6875,49.875
1535253225030629,3.0625,10.875,50
1535253225053189,2.875,10.5,48.6875
1535253225071238,3.9375,11.4375,48.875
1535253225090790,6.3125,10.5625,52
1535253225113351,6.0625,9.4375,51.9375
1535253225130896,5.6875,9.125,49.4375
1535253225150950,4.875,9.25,50.3125
1535253225173008,2.125,9.1875,52.0625
1535253225191056,1.625,9.5625,50.9375
1535253225210725,2.9375,10.125,50.125
1535253225240753,5.5,10.9375,48.4375
1535253225251217,7.9375,10.0625,47.625
1535253225270773,5.5,8.4375,49.5
1535253225293328,1.875,8.25,51.625
1535253225310875,1.25,8.8125,51.25
1535253225331931,3.0625,8.125,50.1875
1535253225355995,6.9375,7.8125,49.8125
1535253225371081,7.1875,8.5625,50.625
1535253225392093,3.6875,7.5,51.3125
1535253225413147,2,6.375,50.875
1535253225431195,1.1875,6.4375,49.9375
1535253225452252,-0.625,8.3125,47.875
1535253225473307,2.5,9.0625,45.8125
1535253225490854,3.6875,8.1875,44.5
1535253225517929,-3,7.9375,46.375
1535253225532966,-4.75,6.25,46.75
1535253225566059,0.625,5.0625,45.4375
1535253225572070,3.125,4.6875,44.1875
1535253225593125,2.3125,5.125,43.5
1535253225611227,2.1875,4.0625,43.75
1535253225631280,1.75,3.4375,44.875
1535253225654293,-1.4375,2.8125,45.5625
1535253225670834,-2.4375,3.625,46.3125
1535253225692898,0.1875,5.0625,46.5
1535253225713948,4.3125,5.25,47.5625
1535253225730516,2.0625,4.5625,50.3125
1535253225753107,-1.625,4.3125,52.125
1535253225773606,-1.8125,4.5,50.0625
1535253225790205,3.5,4.75,47.9375
1535253225820357,5.25,3.875,47.5
1535253225833821,1.3125,2.5625,46.25
1535253225850311,-0.4375,2.625,44.125
1535253225872921,1.8125,3.1875,41.0625
1535253225901445,3.8125,2.1875,39
1535253225910470,2.25,0.3125,39.3125
1535253225933071,-2.1875,-0.125,38.3125
1535253225953624,-0.625,1.875,36
1535253225970672,2.125,1.6875,33.375
1535253225992729,1.8125,1.3125,33.125
1535253226013812,-2.3125,0.875,33
1535253226030331,-2.75,0.625,33.9375
1535253226052889,-4.5,0.5,34.75
1535253226073946,0.4375,0.1875,34.9375
1535253226090491,3.25,0.875,33.25
1535253226119065,1.5,0.875,33.8125
1535253226135181,-2.5,-1.125,36.125
1535253226157673,-4.8125,-2.6875,34.5625
1535253226173712,0.25,-1.0625,31.0625
1535253226193764,4.8125,0.5,29.3125
1535253226210307,0.5625,-1.9375,29.75
1535253226232923,-2.625,-3.1875,30.625
1535253226253977,-1.9375,-2.0625,28.1875
1535253226270469,0.4375,0.1875,25.5
1535253226293059,3.1875,0.375,26
1535253226314112,-0.375,-2,29.1875
1535253226330128,-4.25,-3.9375,29.0625
1535253226352687,-2.3125,-4.25,26.9375
1535253226373747,1.875,-3.625,27.625
1535253226397983,0.3125,-6.25,28.6875
1535253226412849,-3.875,-7.1875,26.375
1535253226433944,-2.5625,-6.9375,23.125
1535253226449569,0.125,-7.375,23.5
1535253226480528,-2.3125,-8.3125,22.0625
1535253226494069,-2.625,-8.9375,20.625
1535253226509605,-3.75,-7.4375,17.125
1535253226532672,-2.6875,-4.9375,13.875
1535253226554224,-2.125,-1.25,10.375
1535253226576282,-2.25,0.125,6.1875
1535253226600347,-3.375,1.875,2.125
1535253226613928,-2.5,3.875,-3.9375
1535253226630928,1,4.5,-11.25
1535253226653491,1.3125,2.3125,-13.5625
1535253226675560,-2.625,1.25,-16.75
1535253226689583,0.0625,2.5,-21.3125
1535253226712648,2.3125,-0.1875,-23.75
1535253226735207,-3.1875,-7.5625,-30.25
1535253226756261,-6.5,-6.6875,-33.4375
1535253226778866,-2.9375,-1.625,-39.25
1535253226795366,-0.8125,2.6875,-44.9375
1535253226816466,-1.375,3.9375,-49.375
1535253226832966,-2,3.5625,-49.5625
1535253226863058,-0.8125,4.1875,-46.75
1535253226876585,-2.3125,3.9375,-44.3125
1535253226900145,-2.75,3.25,-42.0625
1535253226915185,-0.875,4.1875,-45.6875
1535253226936242,-0.0625,2.3125,-48.25
1535253226952787,2.3125,-0.1875,-48.3125
1535253226975358,0.375,-1.125,-47.5
1535253226997907,2.6875,-1.8125,-49.5
1535253227012945,1.5,-3.5,-51.5625
1535253227035505,-3.25,-5.0625,-52.75
1535253227064124,-3.5,-5.3125,-51.625
1535253227072664,-1.5,-5.6875,-50.1875
1535253227095312,5.8125,-4.5625,-48.8125
1535253227116381,2.5625,-5.75,-50.125
1535253227132763,-5.8125,-7.625,-51.75
1535253227155324,-3.6875,-7.625,-49.9375
1535253227176379,-2.3125,-6.9375,-47.5625
1535253227206488,1.125,-6.0625,-47.5625
1535253227215497,-1.0625,-6.1875,-49.5625
1535253227236572,-2,-6.3125,-48.75
1535253227252581,-3.5625,-6.25,-47.0625
1535253227275144,-2.8125,-5.125,-47.9375
1535253227296199,-3.5,-6.3125,-50.75
1535253227312741,-3.75,-5.875,-51.0625
1535253227335324,-1.625,-5.375,-49.9375
1535253227356357,1.4375,-6.125,-49.6875
1535253227372401,0.125,-7.75,-50.375
1535253227395467,-4.1875,-9.4375,-49.125
1535253227416518,-5.1875,-8.875,-47.625
1535253227432063,-3,-8.125,-47.75
1535253227455120,0.4375,-8.1875,-49.8125
1535253227483735,-0.25,-7.6875,-49.5
1535253227506260,-6.0625,-9,-46.375
1535253227515282,-5.0625,-9,-46.75
1535253227536380,-0.4375,-8.625,-47.3125
1535253227560400,-0.0625,-8.75,-45.75
1535253227575439,-3.8125,-7.75,-44.625
1535253227598000,-2.875,-7.25,-44.125
1535253227612042,-1.375,-8.75,-43.5625
1535253227642622,1.9375,-8.9375,-44.0625
1535253227657660,1.1875,-8.625,-43.75
1535253227672198,-3.5625,-9.6875,-42
1535253227695325,-1.4375,-7.375,-43.3125
1535253227717824,-3.6875,-7.1875,-43.75
1535253227738918,-2.5625,-6.25,-42.75
1535253227754956,-3.8125,-5.75,-42.4375
1535253227793556,-1.6875,-5.1875,-41.875
1535253227799073,-5.0625,-6.8125,-41.75
1535253227815115,-5.625,-6.875,-40.8125
1535253227837707,-3,-7.6875,-39.4375
1535253227858817,-0.5625,-6.9375,-40.1875
1535253227875277,-0.8125,-9.0625,-39.375
1535253227898102,-0.0625,-9.8125,-39.0625
1535253227918902,-3.125,-9.8125,-38.5
1535253227935443,-6.125,-9.6875,-36.4375
1535253227957996,-1.75,-8,-35.75
1535253227980556,0.3125,-7.5625,-36.4375
1535253227995095,0.3125,-7.8125,-34.9375
1535253228017654,-5.9375,-9.1875,-32.25
1535253228039212,-6.0625,-7.625,-31.25
1535253228061305,-0.5625,-6.1875,-32.5
1535253228077862,3.5625,-6.125,-33
1535253228098906,-1.5,-9.375,-30.625
1535253228114915,-3.625,-8.3125,-29.0625
1535253228137978,-3.0625,-6.8125,-30.5
1535253228159032,0.5625,-6.125,-29.9375
1535253228175577,-1.9375,-7.5,-29.5
1535253228198137,-3.875,-8,-28.5625
1535253228219194,-2.25,-6.9375,-28.9375
1535253228235310,0.375,-6.75,-29.625
1535253228257798,0.3125,-7.6875,-29.9375
1535253228278848,-1.4375,-7.25,-28.9375
1535253228294891,-2.125,-6.375,-28.3125
1535253228317958,-0.1875,-5.375,-29.25
1535253228340515,2.25,-5.1875,-29.5
1535253228354806,1.9375,-4.5625,-28
1535253228378152,-0.1875,-4.625,-28.0625
1535253228398668,-1,-5.4375,-29.5625
1535253228414714,-2.5,-6,-29.25
1535253228437772,-3.1875,-7.1875,-28.125
1535253228458901,-3.6875,-7.5,-28.6875
1535253228474871,-5,-8,-27.8125
1535253228497936,-1.9375,-7.3125,-25.4375
1535253228519105,-0.25,-6.4375,-24.375
1535253228534546,0.1875,-5.75,-23.75
1535253228557918,-0.75,-5.625,-22.75
1535253228580687,-3.5,-6.1875,-20.875
1535253228594707,-4.375,-5.0625,-19.0625
1535253228618269,-3.875,-4,-19.125
1535253228640328,-2.6875,-3.5,-18.875
1535253228661454,-1.375,-3.125,-18.125
1535253228678033,-2.3125,-3.0625,-16.6875
1535253228700490,-3.375,-2.625,-16
1535253228714526,-3.125,-2.6875,-16
1535253228738132,-1.5,-1.8125,-15.3125
1535253228760162,-2.0625,-1.875,-14.4375
1535253228774720,-1.1875,-1.5625,-13.625
1535253228797746,-0.1875,-1.6875,-13.0625
1535253228820306,-0.5625,-1.3125,-12.3125
1535253228834847,-5.8125,-0.75,-11.5
1535253228857930,-5.8125,-1.125,-10.9375
1535253228880579,-0.125,-1.4375,-12.0625
1535253228894580,1,-1.25,-11.6875
1535253228918163,-2.625,-0.625,-10.25
1535253228940227,-2.3125,-0.8125,-9.6875
1535253228954817,0.6875,-1.4375,-9.375
1535253228977827,0.5625,-1.375,-8.125
1535253229000387,-0.5,-0.8125,-6.0625
1535253229021558,0,-0.5625,-4.5
1535253229037987,0.625,0.0625,-1.6875
1535253229060572,1.0625,0.8125,1.125
1535253229081642,0.8125,0.25,3.625
1535253229097649,1.9375,0.9375,5.3125
1535253229120705,1.75,2.125,6.375
1535253229148884,2.3125,2.625,8.4375
1535253229157803,0.75,3.0625,12.5625
1535253229180404,1.25,4.5625,15.625
1535253229201422,7.4375,5.5,15.3125
1535253229217479,14.4375,4.0625,16.3125
1535253229240527,19.1875,1.9375,17.625
1535253229261581,26.125,1,19.3125
1535253229277127,34.75,2.3125,22.125
1535253229300186,36.625,2.5,28.0625
1535253229321742,42.6875,1.3125,33.5
1535253229337789,60.3125,1.0625,36.6875
1535253229360441,80.875,1.0625,41.1875
1535253229381505,90.5625,2.125,53.125
1535253229403959,98.9375,-0.1875,64.5625
1535253229420504,120.875,-0.9375,69.0625
1535253229449082,155.563,3.5,71.375
1535253229457111,175.688,0.75,75.6875
1535253229480515,167.25,-11.5625,82.125
1535253229502724,149.625,-13.5625,79
1535253229523881,141.125,-4.5625,67.0625
1535253229540321,132.063,5,60.625
1535253229562884,127.625,6.5625,50.5
1535253229584060,126.688,0.8125,38.4375
1535253229600483,118,-8.8125,19.4375
1535253229623042,110.813,-22.625,-11.4375
1535253229644098,103.563,-36.1875,-40.6875
1535253229660140,98.6875,-60,-64.8125
1535253229689224,101.313,-85.375,-71.375
1535253229706765,97.125,-101.563,-96.8125
1535253229728003,83.25,-94.625,-128.938
1535253229742885,83.0625,-78.5,-134
1535253229764026,98,-64.875,-112.25
1535253229780463,73.25,-65.375,-91.625
1535253229803026,33.3125,-63.5625,-79.625
1535253229824080,-11.3125,-57.25,-65.1875
1535253229840328,-29.375,-38.3125,-57.0625
1535253229862680,-27.875,-22.875,-50.9375
1535253229883738,-15.5,-15.5625,-40.1875
1535253229900280,0.3125,-11,-26.125
1535253229922864,13.5625,-5.9375,-19.375
1535253229943937,17.9375,-0.625,-17.75
1535253229960442,11.125,-3.5625,-12.4375
1535253229983001,-4.8125,-3.4375,-10.875
1535253230004158,-0.1875,5,-7
1535253230020600,3.9375,7.625,1.6875
1535253230042658,-6,-0.6875,-2.25
1535253230063795,-10.0625,-7.5625,-7.5
1535253230080483,-0.25,-6.5,-3.6875
1535253230102818,11.75,-3.0625,-6.0625
1535253230124040,13.875,14.3125,-9.25
1535253230140451,5.3125,24.8125,-9.25
1535253230163060,-12.5625,20.3125,-9.5
1535253230184101,-21.0625,17.9375,-13
1535253230199784,-18.75,17,-11.5
1535253230222644,-4.875,14.8125,-0.9375
1535253230260243,3.375,3.3125,5.1875
1535253230262834,2.3125,0.75,3.6875
1535253230282797,0.4375,2.5,0.8125
1535253230304105,-2.75,0.25,5.375
1535253230320436,4.6875,-1.5625,3.125
1535253230342958,2.5,-2.125,3.6875
1535253230364015,-6.875,-4.125,3.875
1535253230380057,-12.875,-2.5625,1.375
1535253230403121,-6.4375,-0.5,1.125
1535253230425190,1.3125,0.0625,0.375
1535253230440222,0.5,-1.4375,0.5
1535253230462910,-7.125,-3.8125,-1.1875
1535253230485336,-10.0625,-3.5625,-0.5
1535253230500375,-2.875,-3.3125,0.875
1535253230522977,0.125,-4.125,-0.4375
1535253230545539,-4.5625,-4.8125,-0.5
1535253230560126,-6.0625,-5.25,0.5
1535253230582598,-4.4375,-3.9375,-1.0625
1535253230605158,-3,-4.5,-0.3125
1535253230619698,-4.8125,-3.5625,0.25
1535253230642755,-4.5625,-1.1875,0.6875
1535253230665321,0.0625,1.3125,0.625
1535253230679877,2.8125,2.1875,0.375
1535253230702914,0.625,2.0625,-0.5
1535253230725477,-1.875,0.6875,-0.75
1535253230739551,0.3125,0.875,-1.4375
1535253230762574,-0.3125,0.9375,-0.1875
1535253230792825,-1.8125,-0.625,-0.0625
1535253230799674,-1.625,-1.1875,-0.5625
1535253230822771,1.375,-0.8125,-1
1535253230845297,-0.5,-1,0.125
1535253230859844,-1.3125,-1.25,1
1535253230882896,0.3125,-0.1875,0.5625
1535253230905489,2.5625,1.375,-0.375
1535253230926512,1.4375,1.8125,-0.8125
1535253230943053,1.8125,0.625,-0.125
1535253230965615,-0.9375,0,-0.875
1535253230986272,0.625,0.8125,-0.9375
1535253231002785,3.375,1.875,-0.375
1535253231025343,4.3125,2.0625,-0.0625
1535253231046401,1.375,1.1875,0.875
1535253231070557,-1.75,-0.8125,1.125
1535253231091611,-1.75,-1.1875,0.4375
1535253231114083,-1.8125,-0.9375,-0.3125
1535253231122603,-4.4375,-2.8125,0.3125
1535253231145163,-4.0625,-2.375,0.75
1535253231166267,-4.0625,-1.25,-1.4375
1535253231183128,-3.875,-2.4375,0.125
1535253231205456,-0.3125,-1.25,2.4375
1535253231226488,3.0625,-0.5,0.5
1535253231243152,6.375,0.375,-3.1875
1535253231265589,0.5,0.125,-3.375
1535253231286647,0.125,-1.5625,-1.875
1535253231302694,3.8125,-1.6875,0.375
1535253231325249,8.1875,1.4375,-2.8125
1535253231346307,7.375,2.0625,-4.5
1535253231370393,1.5625,1.1875,-3.25
1535253231392960,-0.375,2.375,-3.375
1535253231407972,0.3125,2.5625,-3
1535253231423012,4.25,2.6875,-3
1535253231445419,4.6875,3.1875,-2.9375
1535253231468635,0.4375,2.0625,-3.0625
1535253231482676,0,1.1875,-3.75
1535253231505235,2.8125,1.75,-4.375
1535253231527788,2.125,0.5,-4.6875
1535253231542327,0.25,-0.9375,-4.75
1535253231565388,1.125,-0.4375,-5.0625
1535253231587947,3.4375,-0.25,-5.625
1535253231602260,4.25,0.125,-6.125
1535253231625385,0.875,-0.625,-4.8125
1535253231647606,1.5,-0.8125,-4.1875
1535253231670172,4.25,-0.25,-4.25
1535253231685385,2.6875,-0.75,-5.5
1535253231707771,1.0625,-0.125,-6.5
1535253231722307,0.8125,0.875,-6.625
1535253231745366,0.4375,1,-5.8125
1535253231767926,2,-0.125,-5.5
1535253231782466,2.25,-0.375,-6.125
1535253231805527,3.1875,0.75,-5.875
1535253231828087,0.375,-0.3125,-4.75
1535253231849143,1.4375,-0.4375,-3.3125
1535253231865188,3.125,-0.6875,-3.375
1535253231888109,3.5625,-0.9375,-3.5625
1535253231908812,2.625,-1.625,-3.4375
1535253231925351,-1.375,-2.4375,-3.1875
1535253231947959,-1.125,-1.75,-3.4375
1535253231968960,0,-1.75,-3.1875
1535253231985505,0.8125,-1.875,-3.125
1535253232007688,1.125,-0.8125,-2.875
1535253232013120,0,-0.0625,-2.125
1535253232035903,-1.4375,-0.3125,-1.4375
1535253232050677,-1.125,-0.5,-1.5
1535253232073237,-0.625,0.5,-1.625
1535253232095798,0.3125,-0.4375,-0.5
1535253232110838,0.375,-0.4375,-0.5
1535253232133401,-0.25,-1.0625,-0.4375
1535253232155456,-0.25,-1.4375,-0.625
1535253232170497,-1.1875,-1.875,-0.125
1535253232193057,-1.5625,-1.8125,-0.375
1535253232215616,-0.5,-0.875,0.1875
1535253232230658,-1.875,-0.625,-0.3125
1535253232253216,-2.25,0.9375,-0.8125
1535253232275854,-1.8125,0.75,0.125
1535253232290845,-0.6875,0.3125,0.5
1535253232313441,0.25,0.3125,0
1535253232335969,-1.8125,0.3125,0.1875
1535253232351022,-0.9375,0.3125,1.25
1535253232373545,-0.25,-0.125,0.25
1535253232395597,-1.625,-1.5625,-0.25
1535253232410636,-0.9375,-1.0625,0.3125
1535253232433197,0.125,0.125,0
1535253232458765,-1.75,-0.4375,-0.1875
1535253232478328,0.1875,-0.0625,-0.0625
1535253232493401,-1.625,-0.875,0
1535253232515925,-0.5,-0.4375,0.0625
1535253232530963,0.3125,-0.1875,1.5625
1535253232553516,0.5,-0.25,1.5
1535253232576118,-0.75,-0.875,-0.375
1535253232590726,-0.8125,-0.0625,0.5625
1535253232613218,0.0625,-0.1875,0.1875
1535253232635736,0.4375,-0.5625,0.375
1535253232650783,0.6875,-0.9375,-0.625
1535253232673438,0.8125,-1.1875,-0.6875
1535253232695898,-0.125,0,1.125
1535253232710941,0.3125,-0.125,-0.375
1535253232733545,0.875,0.8125,-0.4375
1535253232756064,0.75,0.0625,0.1875
1535253232778039,0.1875,1.125,0.625
1535253232796085,-0.4375,1.5,-0.4375
1535253232818796,0.375,1.5,-0.3125
1535253232838189,-0.125,1.875,0.1875
1535253232853240,-0.0625,1.375,0.375
1535253232875891,0.375,1.8125,0.3125
1535253232890930,1.5,1.3125,0.0625
1535253232913391,0.5625,0.9375,0.3125
1535253232935962,-0.125,0.375,1.3125
1535253232952000,1.0625,0.5,1
1535253232973553,1.9375,0.6875,0
1535253233013157,1.5625,0.375,0.4375
1535253233015387,0.625,0.75,0.5
1535253233036720,0.9375,1.3125,0.8125
1535253233055771,2.125,1.625,0.0625
1535253233073817,2.5,1.3125,-0.0625
1535253233095875,1.3125,0.5,-0.25
1535253233115930,0.6875,0.4375,0
1535253233132008,0.5625,0.875,0.125
1535253233153543,1.25,1.375,-0.25
1535253233175666,0.875,0.75,-0.4375
1535253233192142,0.5,0.625,0.0625
1535253233213193,0.375,0.75,0.4375
1535253233235753,0.25,1,-0.1875
1535253233253796,0.625,0.6875,0.3125
1535253233273349,1.0625,0.625,0.1875
1535253233296009,0.125,0.5625,0.8125
1535253233313458,-0.1875,0.5,-0.0625
1535253233333509,1.4375,0.9375,-0.4375
1535253233355567,1.375,0.875,0.1875
1535253233373650,0.125,0.4375,0.375
1535253233393206,-0.25,0.1875,0.375
1535253233415821,0.875,0.375,-0.1875
1535253233433811,0.8125,0.375,0
1535253233453400,0.125,0.875,0.375
1535253233475918,0.75,0.8125,0.5
1535253233493466,1.4375,0.4375,-0.1875
1535253233513518,0.125,-0.1875,-0.0625
1535253233535587,0.0625,-0.25,0.625
1535253233553626,0.6875,0.4375,0.125
1535253233573691,1.0625,0.5625,-0.25
1535253233595745,0.0625,0.5625,0.0625
1535253233614286,-0.125,0.875,0.0625
1535253233633458,0.8125,1.125,0.375
1535253233655984,1.3125,0.875,-0.1875
1535253233673946,0.0625,0.375,-0.3125
1535253233694499,0,-0.375,0.125
1535253233715572,0.625,-0.1875,0.375
1535253233733644,0.625,0.3125,0.5
1535253233754674,0.125,0.1875,0.0625
1535253233775835,1.0625,0.625,-0.25
1535253233793902,0.8125,0.0625,0
1535253233813475,-0.125,-0.25,-0.0625
1535253233835899,0.75,0.125,0
1535253233853425,0.6875,0.5,0.375
1535253233874984,0.3125,0.125,0.625
1535253233896039,-0.1875,-0.125,0.5
1535253233914087,0.125,-0.1875,0.1875
1535253233934699,0.5625,0.5,-0.625
1535253233955705,0.125,-0.125,0.0625
1535253233973744,-0.25,-0.0625,0.25
1535253233994800,-0.3125,0.4375,0.375
1535253234015905,0.375,0.8125,-0.25
1535253234033579,0.5625,0.6875,-0.125
1535253234054959,0.375,0.75,-0.125
1535253234076016,-0.4375,0.25,0.5
1535253234094077,0.4375,0.3125,0.6875
1535253234122141,0.3125,0.25,-0.0625
1535253234135731,0.375,0.375,0.25
1535253234169529,0.375,0.125,0.5625
1535253234174782,-0.5,-0.0625,0.375
1535253234195923,0.375,0.25,0
1535253234213379,0.125,-0.125,0.4375
1535253234236443,0.25,0.0625,0
1535253234255996,0.125,0.6875,0.125
1535253234273543,-0.1875,0.4375,0
1535253234296101,0.5625,0.5625,0
1535253234315957,0.125,0.125,-0.1875
1535253234333906,-0.1875,0.125,-0.125
1535253234356266,0,0.1875,0
1535253234375867,0.4375,0.1875,0
1535253234393859,0.1875,0.3125,-0.0625
1535253234422442,0.375,0.125,0
1535253234435974,-0.0625,-0.0625,0.0625
1535253234459540,0.1875,0.25,-0.0625
1535253234476087,0.3125,0.0625,-0.375
1535253234495632,0.625,0.375,-0.4375
1535253234513701,0.1875,-0.1875,0.0625
1535253234536243,-0.0625,0.0625,0.25
1535253234555792,-0.375,0.3125,0.5625
1535253234573839,0.5625,0.1875,0.3125
1535253234596006,-0.0625,0,0.5625
1535253234615951,-0.375,0.375,0.125
1535253234633498,0.0625,0,0.5625
1535253234662316,0.375,-0.1875,0.5
1535253234675614,0,0.375,0
1535253234699739,-0.4375,0.3125,-0.125
1535253234722242,-0.1875,0,0.0625
1535253234735772,-0.125,0.5,0.1875
1535253234753818,0.125,0.5,0.375
1535253234776378,0.6875,0.125,-0.3125
1535253234795931,0,0.0625,0.0625
1535253234813479,-0.125,-0.375,0.625
1535253234836081,0.5,-0.0625,0.25
1535253234857147,0.0625,0.0625,0.125
1535253234873710,-0.375,-0.1875,0.6875
1535253234896196,-0.25,-0.125,0.375
1535253234917255,-0.125,-0.1875,0
1535253234933798,-0.3125,-0.125,0.125
1535253234956356,-0.0625,-0.1875,0.0625
1535253234977412,-0.5625,-0.125,-0.1875
1535253234993526,0.25,0.1875,-0.125
1535253235016128,0.375,0.5,-0.1875
1535253235037079,-0.6875,0.125,0.1875
1535253235053615,0.0625,-0.25,0.0625
1535253235076256,0.4375,0,0.125
1535253235096494,-0.125,0,0.0625
1535253235119075,-0.125,-0.1875,0.25
1535253235135517,0.0625,-0.0625,0
1535253235158076,0.1875,-0.125,-0.0625
1535253235172123,0.375,-0.1875,0.0625
1535253235195175,-0.375,-0.4375,-0.0625
1535253235217735,0.1875,-0.5,0
1535253235238902,0.1875,-0.375,0
1535253235255338,-0.125,-0.0625,0.125
1535253235278066,0.5,0.0625,0.5625
1535253235299129,0.125,-0.125,0.25
1535253235315170,-0.25,-0.1875,0.3125
1535253235338048,0.1875,-0.75,0.1875
1535253235352363,-0.125,-0.9375,0.0625
1535253235375566,0.125,-0.4375,-0.0625
1535253235397688,-0.25,-0.0625,0.375
1535253235412169,0.5625,0.5,0.1875
1535253235435507,0.4375,0.625,0
1535253235457794,-0.0625,0.125,0.0625
1535253235472347,-0.0625,0.6875,0
1535253235495391,0.25,0.4375,0.4375
1535253235517949,0.0625,-0.0625,0.1875
1535253235532486,0.25,0.1875,0.0625
1535253235555547,0.0625,0.3125,0.1875
1535253235578109,-0.1875,0.125,0.5625
1535253235592146,0.375,0.3125,0.125
1535253235615205,-0.6875,0.625,-0.0625
1535253235637765,0.25,0.625,-0.25
1535253235658823,0.4375,0.75,-0.0625
1535253235675377,0.4375,0.1875,0.1875
1535253235697925,-0.3125,-0.125,0.125
1535253235720487,0.3125,-0.25,0.125
1535253235741663,0.3125,0.3125,-0.3125
1535253235758152,0,0.1875,0.0625
1535253235779143,0.5,0.5625,0.0625
1535253235795187,0.25,0.1875,-0.125
1535253235817896,0.375,0.0625,0
1535253235838800,0,0.0625,0.0625
1535253235855342,0.3125,0.625,0.0625
1535253235877903,-0.0625,0.3125,0.3125
1535253235898959,0.1875,0.3125,0.0625
1535253235915503,0.625,0.5,0
1535253235938064,-0.4375,0.1875,0.4375
1535253235959120,0.25,0.0625,0.3125
1535253235975667,0.3125,0.125,0.375
1535253235997726,0.1875,0.1875,0.5
1535253236019285,0,0.25,0
1535253236035324,-0.125,-0.125,0.125
1535253236057885,0.4375,-0.125,0.0625
1535253236086464,0,0,-0.125
1535253236095483,0.125,0.125,-0.3125
1535253236124058,-0.25,0.4375,-0.0625
1535253236147620,0.125,0.1875,0.0625
1535253236155140,0.1875,0.5,-0.1875
1535253236177776,0.3125,0.25,-0.25
1535253236200358,0.0625,0.25,0
1535253236214874,0.5,0.0625,0
1535253236237865,0.4375,0.1875,0.3125
1535253236260423,0.25,-0.125,0.0625
1535253236274458,-0.125,0.25,-0.3125
1535253236298021,0.0625,0.75,-0.4375
1535253236320079,0.3125,0.75,-0.3125
1535253236334762,0.375,0.625,-0.3125
1535253236357719,0,0.25,-0.4375
1535253236380343,0.125,0.1875,-0.625
1535253236394790,-0.3125,-0.1875,-0.3125
1535253236417843,0.6875,-0.5,-0.125
1535253236440414,0.125,-0.4375,0.0625
1535253236454940,-0.75,-0.25,0.125
1535253236478116,0.5625,0,0.25
1535253236500060,1.1875,0.25,0.125
1535253236514597,-0.5,0.25,-0.125
1535253236537659,0.25,-0.5,0
1535253236560303,0.1875,-0.0625,0.3125
1535253236574767,0.5,-0.0625,0.3125
1535253236597819,-0.125,-0.125,0.4375
1535253236620882,0.0625,-0.1875,0
1535253236641539,-0.1875,-0.1875,0.25
1535253236658084,0.3125,0,0.4375
1535253236680544,0.0625,-0.0625,0.6875
1535253236701612,-0.6875,0.0625,0.375
1535253236717636,0.125,0.5625,0.3125
1535253236740198,0.375,0.1875,-0.25
1535253236761357,0.4375,0.0625,0
1535253236777808,-0.6875,-0.4375,0.125
1535253236800363,0.25,-0.0625,0
1535253236821423,0.375,0.0625,0
1535253236837960,0.1875,0.1875,0.25
1535253236860579,0.5,0.125,0.1875
1535253236881636,-0.0625,0.5,0.125
1535253236897678,0.3125,0.5625,-0.0625
1535253236920238,0.625,0.8125,-0.25
1535253236941300,-0.0625,0.25,0.125
1535253236957898,0.4375,0.1875,0
1535253236980398,0.375,-0.0625,-0.3125
1535253237001462,0.1875,-0.4375,-0.25
1535253237018001,0.125,-0.5,0
1535253237040558,-0.125,-0.125,-0.25
1535253237063119,0.375,0.4375,-0.5625
1535253237078160,0.625,0.6875,-0.125
1535253237100216,0.3125,0.5625,-0.1875
1535253237122777,0.1875,0.0625,-0.0625
1535253237137816,-0.375,0.125,-0.25
1535253237160746,0.625,0.25,0.125
1535253237182934,0.1875,0.3125,-0.1875
1535253237196973,0,0,0.1875
1535253237221040,0.125,0.3125,0.25
1535253237243098,-0.3125,0.25,0.4375
1535253237257132,-0.125,-0.125,0.1875
1535253237280195,0,0,0
1535253237302756,-0.1875,-0.0625,0.5625
1535253237317293,-0.3125,0,0.3125
1535253237340355,0.125,0,0
1535253237362915,-0.3125,-0.1875,0.5
1535253237377048,-0.1875,0.0625,0.75
1535253237400514,-0.125,0.125,0.8125
1535253237423108,-0.75,0.0625,0.25
1535253237437122,-0.625,0.125,0.1875
1535253237460180,0,0,0.0625
1535253237482733,0.125,-0.3125,0.1875
1535253237497775,-0.625,-0.3125,0.125
1535253237520336,-0.5,-0.1875,0.0625
1535253237542904,-0.375,-0.125,0
1535253237563948,0.375,0.0625,0.0625
1535253237580494,-0.125,-0.0625,0.1875
1535253237602705,-0.3125,-0.0625,0
1535253237624108,0.1875,-0.0625,-0.0625
1535253237640150,0,0.125,0
1535253237662716,-0.25,0,-0.0625
1535253237683843,-0.0625,-0.0625,-0.3125
1535253237700311,-0.25,-0.5,-0.0625
1535253237730400,-0.0625,-0.4375,-0.9375
1535253237743930,-0.4375,0.0625,-0.625
1535253237760493,-0.375,1,-0.625
1535253237783030,0,0.75,-0.125
1535253237804087,-0.1875,0.125,-0.125
1535253237820130,-0.75,-0.25,-0.1875
1535253237842699,-0.375,-0.5625,-0.125
1535253237864251,-0.25,-0.3125,0.1875
1535253237880294,-0.3125,-0.3125,0.0625
1535253237902972,-0.375,-0.25,0.125
1535253237924027,-0.625,-0.4375,0.1875
1535253237940452,-0.5625,-0.25,0.4375
1535253237963012,-0.125,-0.25,0.125
1535253237984309,-0.1875,-0.25,0.375
1535253238000145,-0.3125,-0.1875,0.25
1535253238029188,-1,0.1875,0.25
1535253238051250,-0.625,0.375,-0.125
1535253238060279,-0.375,0.4375,-0.1875
1535253238082830,-0.3125,0.3125,0.375
1535253238105399,-0.3125,-0.0625,0.625
1535253238126551,-0.0625,-0.125,0.625
1535253238142989,-0.9375,-0.5625,0.625
1535253238165628,-0.125,-0.3125,0.3125
1535253238179586,0.625,-0.6875,-0.125
1535253238202946,-0.0625,-1.0625,0.375
1535253238225214,-0.0625,-0.3125,0
1535253238239749,0.4375,0.0625,-0.25
1535253238262808,0.25,0.5,0.0625
1535253238285370,0.25,0.75,-0.0625
1535253238308497,0.6875,0.6875,-0.0625
1535253238329089,0.4375,0.375,-0.125
1535253238345538,0.125,-0.125,0.4375
1535253238359577,-0.0625,-0.3125,0
1535253238383128,0.375,0.4375,0.0625
1535253238405187,0.1875,0.4375,0
1535253238419799,0.4375,0.0625,-0.0625
1535253238442987,-0.0625,-0.375,0.3125
1535253238465349,-0.25,0.3125,-0.0625
1535253238486504,0.125,0.4375,0.25
1535253238502955,0.8125,0.4375,-0.0625
1535253238525507,-0.125,0.375,0.25
1535253238546624,-0.125,0.25,0
1535253238563109,-0.4375,0.125,0.375
1535253238585167,0.375,0.25,0.1875
1535253238606273,0.5,0.5,0.3125
1535253238622766,0,-0.1875,0.1875
1535253238645325,0,0,0.1875
1535253238666385,0.1875,0.1875,0.25
1535253238682931,-0.25,0.0625,0.4375
1535253238705486,0.5,0.4375,0.25
1535253238726550,-0.125,0.375,-0.125
1535253238743103,0.8125,0.625,0.0625
1535253238765657,-0.0625,-0.125,0.25
1535253238786207,0.0625,0.1875,0.125
1535253238802790,0.5,0.3125,0.25
1535253238825812,0.25,0,0.5
1535253238863407,-0.1875,-0.0625,0.125
1535253238866004,-0.5,-0.0625,0.0625
1535253238885968,0.3125,0.0625,0.125
1535253238906532,0.5,0,-0.1875
1535253238922570,-0.125,0,0
1535253238945646,-0.0625,0.25,-0.0625
1535253238968304,0.375,0.4375,0
1535253238983245,0.25,0.1875,-0.0625
1535253239005301,0.1875,0.25,-0.4375
1535253239027862,-0.0625,0.1875,-0.0625
1535253239042901,0.25,-0.125,0.125
1535253239065460,-0.0625,-0.3125,-0.1875
1535253239088020,0.0625,0.0625,-0.0625
1535253239102057,0,-0.125,0.0625
1535253239125118,-0.1875,-0.3125,-0.1875
1535253239147678,-0.1875,-0.125,0
1535253239162220,-0.125,-0.125,0.1875
1535253239185353,0.1875,0.25,-0.125
1535253239207840,-0.25,0.0625,-0.0625
1535253239222458,0.0625,0.125,-0.25
1535253239245444,-0.375,-0.1875,-0.25
1535253239267998,0.125,0.125,-0.125
1535253239282036,-0.1875,-0.3125,0.1875
1535253239305099,-0.5,-0.25,0.25
1535253239328029,-0.4375,0.0625,0.0625
1535253239342199,0.0625,0.25,0
1535253239365533,0,0,-0.125
1535253239387589,0.0625,-0.0625,-0.3125
1535253239408795,-0.125,-0.25,-0.0625
1535253239425340,-0.375,-0.1875,0
1535253239447898,0,-0.25,0.125
1535253239468453,0.25,-0.125,-0.4375
1535253239485501,-0.6875,-0.0625,-0.1875
1535253239508060,0.0625,0.1875,0.375
1535253239529124,0.1875,0,0.125
1535253239545163,-0.5,-0.3125,0.0625
1535253239568220,-0.1875,-0.0625,0
1535253239589289,-0.0625,-0.375,-0.125
1535253239605329,0.1875,-0.375,-0.0625
1535253239628005,-0.5,-0.125,-0.1875
1535253239649058,0.25,0.125,-0.0625
1535253239671626,0.375,0.375,0.125
1535253239687663,0.4375,0.1875,0.0625
1535253239708768,0.25,-0.1875,-0.0625
1535253239725402,-0.125,-0.0625,0.0625
1535253239747918,0.25,-0.1875,0.1875
1535253239768883,0,-0.6875,0.25
1535253239785422,-0.375,0,0.125
1535253239807986,-0.1875,0.25,-0.0625
1535253239829104,0.625,0.1875,-0.3125
1535253239845584,-0.5625,-0.3125,-0.125
1535253239867641,-0.8125,-0.3125,0.125
1535253239890200,-0.375,-0.0625,-0.0625
1535253239905241,0.4375,0.375,-0.375
1535253239927806,-0.125,0.1875,-0.1875
1535253239950865,-0.25,0.1875,-0.1875
1535253239965404,0.375,0.125,-0.125
1535253239993990,-0.3125,-0.0625,0.25
1535253240010522,-0.3125,0,0.3125
1535253240024558,0,-0.125,0.25
1535253240047624,0.0625,-0.1875,0.125
1535253240070180,-0.375,-0.5,0.375
1535253240085022,-0.25,-0.375,-0.25
1535253240107868,-0.125,-0.1875,-0.25
1535253240130341,-0.125,-0.3125,0.0625
1535253240144878,-0.0625,-0.25,0.125
1535253240167939,-0.5625,-0.25,0.125
1535253240190498,-0.125,-0.3125,0
1535253240204537,-0.3125,-0.0625,-0.0625
1535253240227605,-0.125,0,0.3125
1535253240250661,-0.625,-0.1875,0.25
1535253240271720,-0.3125,-0.375,0
1535253240287758,-0.3125,-0.625,-0.25
1535253240310320,-0.375,-0.375,-0.0625
1535253240324857,-0.375,-0.0625,-0.3125
1535253240347919,-0.75,-1.0625,-0.1875
1535253240370478,0.375,-0.375,-0.25
1535253240391911,-0.6875,-0.5625,0.3125
1535253240408082,-0.125,-0.1875,0.125
1535253240430640,-0.75,0,0.0625
1535253240451707,-0.5,0.1875,0.3125
1535253240468240,0.125,-0.125,0.1875
1535253240490297,-0.375,-0.4375,0
1535253240511353,-0.625,-0.5625,-0.0625
1535253240528398,-0.625,-0.8125,0.125
1535253240550457,-0.0625,-0.5,-0.375
1535253240571193,-0.375,-0.3125,-0.1875
1535253240587737,-0.875,-0.3125,0.125
1535253240610298,0,-0.125,-0.4375
1535253240631350,-0.4375,-0.0625,-0.5625
1535253240647899,-0.3125,-0.375,-0.25
1535253240670456,-0.5,-0.375,0.0625
1535253240691564,-0.4375,-0.8125,-0.1875
1535253240707555,-0.125,-0.75,-0.25
1535253240730115,-0.0625,-0.75,0.25
1535253240751171,-0.125,-0.5625,0.0625
1535253240767946,0.125,-0.6875,0
1535253240790567,-0.1875,-0.75,-0.4375
1535253240811402,-0.25,-0.375,-0.625
1535253240827945,-0.5625,-0.125,-0.3125
1535253240850448,-0.4375,-0.5,-0.25
1535253240872996,0,-0.5625,-0.375
1535253240888037,0,-0.75,0.0625
1535253240910103,-0.625,-0.625,0.5625
1535253240932655,0.0625,-0.1875,-0.0625
1535253240947276,-0.875,-0.3125,-0.375
1535253240970254,0.3125,-0.125,-0.125
1535253240992821,0.0625,-0.375,-0.1875
1535253241007353,-0.25,-0.9375,0.0625
1535253241030417,-0.5625,-0.375,-0.25
1535253241052670,-0.25,0.1875,-0.125
1535253241067011,0.125,0.625,0.25
1535253241090573,0.3125,0.75,-0.125
1535253241113140,0,0.6875,-0.125
1535253241127174,-0.625,0.375,0.125
1535253241150252,0.375,0.375,0
1535253241172922,0.375,0.1875,-0.125
1535253241187359,-0.625,0.0625,0
1535253241210411,-0.0625,0.0625,0.125
1535253241232972,0.1875,0.0625,0.1875
1535253241247015,0.125,0.1875,-0.125
1535253241270338,-0.75,0.1875,-0.125
1535253241292639,-0.1875,0,-0.1875
1535253241307176,0.1875,0.4375,0
1535253241337750,0.1875,0.1875,-0.3125
1535253241358812,-0.4375,-0.125,-0.125
1535253241373847,-0.0625,0,-0.1875
1535253241390544,-0.25,0,-0.1875
1535253241413058,0.1875,-0.125,-0.0625
1535253241434130,-0.0625,-0.1875,-0.1875
1535253241450574,-0.125,0.0625,-0.1875
1535253241472620,0.1875,0.0625,-0.0625
1535253241478245,-0.375,0.1875,-0.3125
1535253241500829,0.25,0.25,-0.125
1535253241515835,-0.125,-0.3125,-0.125
1535253241538292,0.4375,-0.0625,-0.25
1535253241560847,0,-0.25,0.1875
1535253241575900,0.0625,-0.375,0.3125
1535253241598511,-0.5,-0.5,0.25
1535253241629528,-0.625,-0.3125,0
1535253241636170,-0.0625,0,-0.125
1535253241661205,0.5625,0,0.125
1535253241680668,-0.375,0,0.125
1535253241695748,-0.25,0,0.0625
1535253241719768,0.125,0.1875,-0.125
1535253241740833,-0.3125,0.4375,0.0625
1535253241755869,0.125,0.5,-0.1875
1535253241778445,0.1875,0.375,-0.25
1535253241800985,0.4375,0.25,0
1535253241815581,-0.0625,-0.25,-0.1875
1535253241838586,0.125,-0.375,-0.25
1535253241860693,-0.125,-0.375,-0.25
1535253241875808,0.25,-0.5,0.0625
1535253241898566,-0.125,-0.375,0.0625
1535253241920925,-0.375,-0.125,-0.25
1535253241938472,0.125,0.25,-0.375
1535253241958528,0.5,0.1875,-0.8125
1535253241981082,-0.125,0,-0.4375
1535253241995630,0.1875,0,-0.4375
1535253242018177,-0.25,-0.375,-0.5
1535253242040737,0.625,-0.5625,-0.5625
1535253242055777,-0.1875,-0.3125,0.0625
1535253242078335,-0.1875,-0.25,0
1535253242100897,0.125,0,0.0625
1535253242115433,0.125,0.0625,-0.25
1535253242138272,0.25,-0.125,-0.125
1535253242160557,-0.375,0.1875,0.0625
1535253242175760,-0.3125,0.0625,-0.125
1535253242198390,-0.25,-0.0625,-0.1875
1535253242228743,0,-0.375,0
1535253242237260,-0.625,-0.1875,0
1535253242258315,0.125,0.1875,0.1875
1535253242280893,-0.1875,0.4375,0.0625
1535253242295933,-0.25,0.1875,0.25
1535253242318494,-0.1875,-0.5,0
1535253242340560,-0.125,-0.5625,-0.3125
1535253242355645,-0.1875,-0.375,-0.1875
1535253242378204,-0.3125,-0.25,-0.0625
1535253242400829,0.25,0.0625,0
1535253242417258,-0.0625,0.125,0.0625
1535253242438381,0.1875,0.25,-0.4375
1535253242460900,0.3125,0.0625,-0.5
1535253242477418,-0.1875,0,-0.3125
1535253242505494,0.5625,-0.0625,-0.1875
1535253242529063,0.375,-0.5,-0.5
1535253242537077,-0.3125,-0.5625,0
1535253242558189,-0.125,-0.3125,0
1535253242580847,0.375,-0.25,-0.1875
1535253242597336,-0.1875,-0.4375,-0.125
1535253242618349,-0.4375,-0.3125,-0.25
1535253242640906,0.0625,0.5625,-0.625
1535253242656948,0.375,0.75,-0.625
1535253242678506,0.125,0.0625,-0.25
1535253242701073,-0.5625,-0.375,-0.3125
1535253242723218,0.3125,-0.4375,-0.125
1535253242738230,-0.1875,0.125,0.125
1535253242760823,-0.1875,0.3125,0.1875
1535253242778807,-0.375,0,0
1535253242798396,0.5,-0.25,0.125
1535253242820889,-0.1875,0.1875,0
1535253242838600,-0.3125,-0.25,0.0625
1535253242858486,-0.375,0.125,0.0625
1535253242880544,0.25,0.125,0.0625
1535253242898658,-0.25,-0.4375,0.3125
1535253242918147,-0.4375,-0.375,-0.1875
1535253242940705,-0.375,-0.25,0.0625
1535253242958751,0.125,0,0.0625
1535253242978416,-0.1875,0.1875,-0.3125
1535253243002382,-0.4375,-0.5,0.25
1535253243018913,-0.375,-0.0625,-0.125
1535253243038465,0.1875,-0.4375,0.0625
1535253243063619,-0.4375,-0.875,-0.0625
1535253243078571,-0.3125,-0.0625,-0.375
1535253243098132,-0.25,0.0625,-0.1875
1535253243120727,0.4375,0.625,-0.125
1535253243138731,-0.3125,0.5,-0.375
1535253243158289,0.125,0.25,-0.25
1535253243181024,0.125,-0.1875,0.1875
1535253243198893,-0.3125,-0.8125,0.25
1535253243218451,-0.75,-0.75,-0.1875
1535253243241003,0.3125,0,-0.1875
1535253243258613,0,0,-0.125
1535253243278237,-0.25,0.125,-0.125
1535253243300669,-0.5,-0.5,0
1535253243318827,-0.125,-0.1875,-0.125
1535253243339782,-0.3125,-0.1875,-0.375
1535253243360918,-0.8125,-0.125,0.3125
1535253243378369,1.1875,-0.1875,-0.3125
1535253243399926,-1.4375,0.3125,0
1535253243420983,0.6875,-0.1875,-0.4375
1535253243438531,-1.375,0.4375,-0.3125
1535253243459598,1.125,-0.6875,-0.0625
1535253243480641,-1.875,0.75,0.5625
1535253243498689,0.4375,-0.875,0.125
1535253243521250,-1.6875,0.3125,0.9375
1535253243540800,2.5625,0.25,-0.5
1535253243558848,-3.5,-1.0625,-0.1875
1535253243579403,1.375,-0.4375,-0.9375
1535253243600493,-2,-0.75,-1.25
1535253243618545,0,-0.5,-0.0625
1535253243639604,0.3125,-0.6875,0.375
1535253243660741,-0.125,0.1875,0.75
1535253243678668,-0.125,-0.9375,0.375
1535253243708748,-1.25,-0.125,0.0625
1535253243720900,-0.375,-0.875,-1.0625
1535253243738827,-0.9375,-0.5,-0.375
1535253243761387,-0.6875,-1.1875,-0.125
1535253243780938,-0.375,0.375,-0.3125
1535253243798539,0.125,-0.5625,-0.0625
1535253243821052,-0.5625,0.3125,0.0625
1535253243840601,-0.3125,-0.25,-0.5625
1535253243859148,-0.875,0.1875,0
1535253243881709,0.5625,-0.9375,0.625
1535253243900763,-1.1875,-0.25,0.25
1535253243918812,0.1875,-0.375,-0.1875
1535253243940865,-0.875,0.3125,0.0625
1535253243960918,0.375,-0.0625,-0.0625
1535253243978517,-1.1875,-0.5625,-0.0625
1535253244001027,0.3125,-0.625,0.4375
1535253244020675,-1.1875,-0.4375,0
1535253244038627,0.0625,0,0.0625
1535253244061186,-0.625,-0.125,-0.5625
1535253244080783,0.0625,0.1875,-0.125
1535253244098787,-0.375,-0.125,-0.25
1535253244121347,-0.4375,-0.0625,0
1535253244140898,-0.125,-0.375,-0.1875
1535253244158946,-0.5625,-0.25,-0.4375
1535253244181004,0.1875,-0.25,0.0625
1535253244200623,-0.3125,0.125,0.125
1535253244218609,0,0.1875,-0.0625
1535253244245678,0.0625,0.3125,-0.125
1535253244262223,-0.125,0,-0.0625
1535253244278765,-0.25,0.25,-0.4375
1535253244301343,0.1875,-0.125,-0.3125
1535253244322380,0.0625,0.0625,0.25
1535253244338427,0,-0.875,0.3125
1535253244361073,-1.0625,-0.3125,0.3125
1535253244382038,-0.375,-0.1875,0
1535253244398582,-0.125,0.375,-0.125
1535253244421149,0.4375,-0.1875,-0.125
1535253244442199,-0.6875,-0.1875,-0.0625
1535253244458751,0.3125,-0.125,-0.125
1535253244481348,-0.9375,0.125,-0.0625
1535253244502361,0.75,0.4375,0.125
1535253244517432,-0.5625,0.25,0.0625
1535253244540459,-0.125,0.0625,0.125
1535253244561557,-0.375,0,0.1875
1535253244584076,0.25,0.0625,0.0625
1535253244600122,-0.25,-0.3125,-0.0625
1535253244622688,-0.375,0,0.0625
1535253244643834,0.1875,-0.4375,-0.1875
1535253244667808,-0.1875,0.0625,0.125
1535253244690359,-0.25,0,0.25
1535253244703898,-0.5,0.25,0
1535253244720451,0.5,0.3125,-0.375
1535253244743000,0.125,0.375,-0.1875
1535253244757037,0.125,-0.125,-0.1875
1535253244780601,-0.1875,-0.3125,-0.3125
1535253244802860,0.0625,-0.375,-0.25
1535253244817398,-0.3125,0.125,-0.3125
1535253244840457,0.375,0,0
1535253244863524,0.125,0.0625,0
1535253244877058,0.125,-0.25,0.0625
1535253244900620,-0.4375,-0.125,0.125
1535253244923179,0.0625,0,-0.0625
1535253244937231,-0.1875,0.125,-0.1875
1535253244960280,0.4375,0.1875,-0.1875
1535253244982838,0,0.1875,0.0625
1535253244997376,0.25,0,0.4375
1535253245020440,-0.25,-0.25,0.3125
1535253245042997,-0.625,-0.5625,0.25
1535253245057034,-0.75,-0.3125,0.0625
1535253245080544,0.3125,-0.25,-0.25
1535253245102662,0.125,-0.1875,-0.375
1535253245124217,0.25,0.1875,-0.1875
1535253245140386,-0.4375,0.0625,-0.125
1535253245162819,0,0.25,-0.125
1535253245183989,0,0,-0.25
1535253245200416,0.25,0.25,-0.0625
1535253245222978,0.0625,0.125,-0.125
1535253245244073,0.6875,0.3125,0.125
1535253245266600,-0.125,-0.1875,-0.375
1535253245282642,0.0625,-0.25,0.0625
1535253245305205,-0.25,-0.25,-0.0625
1535253245320378,0.0625,-0.25,0.125
1535253245342796,-0.1875,-0.5625,0.0625
1535253245363851,-0.0625,-0.1875,0.0625
1535253245380396,-0.25,0.25,-0.25
1535253245402956,0.25,0.5,-0.5625
1535253245424018,0.5,0.0625,-0.5625
1535253245440556,-0.4375,-0.25,-0.25
1535253245463116,-0.3125,-0.6875,-0.0625
1535253245484180,-0.3125,-0.5,0.125
1535253245500229,-0.25,-0.125,0.375
1535253245523279,-0.1875,0.3125,0
1535253245543839,0.1875,0.5625,-0.125
1535253245559873,0.25,0.5,-0.3125
1535253245582937,0,0.125,0.25
1535253245605511,-0.4375,-0.25,0.125
1535253245620536,-0.25,-0.1875,0.1875
1535253245643178,-0.5,-0.4375,-0.125
1535253245665239,0,0,-0.0625
1535253245680277,0.3125,0.125,0.1875
1535253245702839,-0.3125,0.0625,0.3125
1535253245725475,-0.625,-0.25,0.25
1535253245739939,-0.5,-0.3125,0
1535253245763079,0.5625,-0.125,-0.3125
1535253245791640,-0.625,-0.375,-0.0625
1535253245799668,0,0,-0.0625
1535253245823234,-0.375,0.3125,-0.125
1535253245845291,0.1875,0.4375,-0.125
1535253245859822,-0.125,0.375,0.3125
1535253245883485,0,0.125,-0.0625
1535253245905443,0,-0.1875,-0.375
1535253245919480,0.1875,-0.375,-0.0625
1535253245942542,-0.0625,-0.4375,-0.4375
1535253245965622,-0.1875,-0.0625,-0.3125
1535253245979825,-0.0625,0.25,-0.3125
1535253246003204,0.375,-0.125,0
1535253246025448,-0.4375,-0.4375,-0.25
1535253246046327,-0.125,-0.375,0
1535253246062977,-0.25,0.1875,-0.1875
1535253246085542,0.125,0.1875,-0.1875
1535253246106600,-0.25,0.1875,-0.4375
1535253246122642,0.25,0.4375,-0.4375
1535253246145192,-0.1875,0,0.0625
1535253246166796,-0.4375,-0.25,0
1535253246182794,-0.25,-0.5,0
1535253246205359,-0.3125,-0.1875,0.0625
1535253246226409,0.1875,0.375,-0.25
1535253246243050,-0.25,0.25,0.125
1535253246265511,0.0625,0.125,-0.0625
1535253246286592,-0.375,0,0.0625
1535253246302637,-0.0625,0.125,0
1535253246331216,-0.5625,0,0.0625
1535253246346753,0,-0.3125,-0.0625
1535253246362795,-0.3125,-0.5,-0.125
1535253246385360,-0.1875,-0.25,-0.0625
1535253246406416,-0.25,-0.1875,0.25
1535253246422955,-0.6875,-0.125,0.25
1535253246445516,-0.5625,-0.25,0.0625
1535253246466580,-0.3125,-0.1875,-0.4375
1535253246482614,0,-0.3125,0.0625
1535253246505174,-0.6875,-0.375,-0.3125
1535253246527736,-0.3125,-0.125,-0.4375
1535253246542773,-0.3125,-0.125,-0.5
1535253246565390,-0.1875,0,-0.375
1535253246587962,0.125,0.0625,0.125
1535253246610455,-0.4375,0.0625,-0.125
1535253246625493,-0.1875,-0.25,-0.1875
1535253246647581,-0.375,-0.375,-0.1875
1535253246662110,-0.125,0,-0.3125
1535253246685388,-0.375,-0.1875,0.0625
1535253246707731,-0.25,-0.5,-0.0625
1535253246722271,-0.3125,-0.625,-0.1875
1535253246745330,-0.75,-0.75,0.25
1535253246767890,-0.75,-0.375,-0.0625
1535253246781931,-0.125,-0.125,-0.3125
1535253246805142,0.125,0.0625,-0.3125
1535253246828080,-0.625,0,-0.25
1535253246842247,-0.5625,-0.1875,-0.25
1535253246865189,-0.5625,-0.6875,0
1535253246887742,-0.125,-0.625,0.1875
1535253246902355,-0.375,-0.6875,0.125
1535253246931355,-0.375,-0.625,0.125
1535253246947899,-0.5,-0.375,-0.125
1535253246962125,-0.375,-0.125,0.0625
1535253246985195,-0.1875,-0.125,-0.1875
1535253247007746,0,-0.3125,-0.125
1535253247029305,-0.5,-0.5625,0
1535253247045347,-0.4375,-0.4375,-0.25
1535253247067907,-0.625,-0.5625,-0.375
1535253247088966,0.1875,-0.0625,-0.1875
1535253247105506,-0.3125,-0.125,0.25
1535253247128105,-0.625,-0.375,0.4375
1535253247149124,-1,0,0.3125
1535253247165172,0,-0.5625,0.3125
1535253247187724,-0.5,0,0.4375
1535253247210285,0.0625,-1.125,-0.375
1535253247225329,-1.125,-0.1875,-0.3125
1535253247247887,1.125,0,-0.375
1535253247270445,-1.0625,0.4375,0.125
1535253247285483,0.5,0.0625,0.3125
1535253247308050,-0.125,0.4375,0.3125
1535253247329101,0,0.4375,0.25
1535253247345149,0.1875,0.4375,0.125
1535253247368706,-0.1875,0.3125,0
1535253247388873,0.0625,0.9375,-0.125
1535253247405314,-0.3125,0,0.5
1535253247427864,0.4375,-0.75,0.6875
1535253247450426,0,-0.1875,-0.125
1535253247465478,-0.5,0.375,0.125
1535253247488529,0.4375,1.125,0.0625
1535253247511589,0,0.4375,-0.4375
1535253247525624,0.25,0.125,0.125
1535253247547684,-0.5,-0.1875,0.125
1535253247570472,-0.25,0.4375,-0.25
1535253247585282,0.0625,0.4375,-0.4375
1535253247607842,0.625,0.375,-0.0625
1535253247630469,-0.75,0.125,0.0625
1535253247644439,-0.3125,-0.125,0
1535253247668005,0.6875,-0.125,0.0625
1535253247690564,-0.4375,0.3125,-0.625
1535253247704634,1,0.25,-0.5
1535253247727663,-0.625,0,-0.5
1535253247750293,0.4375,0.0625,-0.625
1535253247764761,-0.8125,0,-0.375
1535253247787921,0.875,-0.3125,0.125
1535253247810380,1.0625,-0.375,-0.125
1535253247824418,-0.625,-0.1875,-0.25
1535253247847984,-0.5625,0.1875,-0.125
1535253247870054,0.6875,0.3125,-0.5
1535253247884579,0.5625,0.125,-0.375
1535253247907640,-0.625,-0.4375,0.0625
1535253247931702,-0.3125,-0.3125,0.1875
1535253247951255,-0.125,-0.5,-0.1875
1535253247967799,0.25,0,-0.25
1535253247990364,0.0625,-0.0625,-0.1875
1535253248011415,-0.3125,0.125,0
1535253248027959,0.25,0.1875,0.4375
1535253248050522,-0.3125,-0.25,-0.125
1535253248079098,-0.1875,0,0
1535253248088188,-0.4375,-0.5625,0.125
1535253248110681,0.1875,-0.375,-0.0625
1535253248131235,-0.1875,-0.5625,0
1535253248147782,-0.6875,0.1875,-0.0625
1535253248170343,0.1875,0.6875,-0.1875
1535253248191394,0,0.6875,-0.3125
1535253248207938,0.1875,0.125,-0.25
1535253248230512,-0.3125,-0.4375,-0.4375
1535253248251554,-0.4375,-0.375,-0.5625
1535253248267728,-0.4375,0.0625,-0.625
1535253248297693,0.3125,0.4375,-0.5
1535253248311220,0.25,0.5,-0.5625
1535253248327759,-0.3125,0.3125,-0.375
1535253248350325,-0.3125,-0.3125,-0.5
1535253248371417,0.125,-0.5625,-0.25
1535253248387418,-0.3125,-0.125,-0.4375
1535253248410481,-0.1875,0.4375,-0.5625
1535253248432546,0.25,1,-0.5
1535253248447587,0.3125,1.125,-0.625
1535253248470637,0.3125,0.4375,0
1535253248494216,0.4375,0,0.3125
1535253248507747,-0.625,0,0.0625
1535253248530345,-0.5,-0.375,-0.1875
1535253248553405,0.125,0.375,-0.375
1535253248567446,0.9375,0.4375,-0.5625
1535253248596520,-0.75,0.1875,-0.625
1535253248612561,-0.3125,0.5625,-0.375
1535253248627200,-0.125,0.4375,0
1535253248650169,-0.3125,0.375,0.375
1535253248672728,-0.5,0.375,-0.3125
1535253248687264,0.25,0,-0.6875
1535253248710341,0.125,0.5,-0.5
1535253248732893,-0.375,0.3125,-0.0625
1535253248747432,0.6875,0.25,-0.0625
1535253248770493,0.3125,0,-0.25
1535253248792555,-0.5625,-0.1875,-0.3125
1535253248807089,-0.125,-0.4375,-0.125
1535253248830151,-0.25,-0.25,-0.3125
1535253248852712,-0.3125,0.0625,-0.3125
1535253248873769,0,-0.0625,-0.125
1535253248890317,0.0625,0.1875,0.0625
1535253248912877,0.125,0.25,0.1875
1535253248933936,-0.6875,-0.1875,0
1535253248950471,0,-0.4375,-0.25
1535253248973032,0.375,-0.5,-0.25
1535253248994163,0.1875,-0.375,0.125
1535253249010156,-0.5625,0,0.0625
1535253249032719,-0.3125,-0.125,0.3125
1535253249053778,0.5,0.0625,0.1875
1535253249070523,-0.0625,0.125,-0.0625
1535253249092933,-0.4375,-0.25,0.125
1535253249113936,-0.1875,-0.0625,0.1875
1535253249130558,0.0625,-0.125,-0.25
1535253249153037,0,0.4375,0
1535253249174100,-0.0625,0,0.25
1535253249190527,0.0625,0.125,0.125
1535253249212697,-0.875,-0.5,0.25
1535253249233756,-0.4375,-0.4375,0.1875
1535253249256375,0.125,-0.5625,0
1535253249272862,-0.0625,-0.5625,-0.0625
1535253249294027,-0.75,-0.1875,-0.3125
1535253249310462,-0.0625,0.125,-0.125
1535253249333020,-0.0625,0.3125,0.0625
1535253249355576,-0.125,0.25,0
1535253249370617,-0.125,-0.25,-0.0625
1535253249406330,-0.5,-0.5,-0.125
1535253249415237,-0.1875,-0.5,0.125
1535253249430276,-0.25,-0.3125,-0.25
1535253249452834,-0.0625,-0.25,0.0625
1535253249475433,-0.1875,-0.1875,-0.0625
1535253249489433,-0.5,-0.5625,0.0625
1535253249512570,-0.5,-0.75,0.3125
1535253249535480,-0.6875,-0.5,0.125
1535253249549590,-1.25,-0.75,-0.375
1535253249573154,0.5625,-0.125,-0.0625
1535253249595224,0.125,0.6875,-0.4375
1535253249609751,-1.0625,0.1875,-0.5625
1535253249632813,-0.0625,-0.375,-0.125
1535253249655374,0,-0.625,-0.375
1535253249676431,-0.8125,-0.875,0.125
1535253249692974,-0.4375,-0.5625,0.3125
1535253249721706,0.0625,-0.0625,0.125
1535253249729572,-0.0625,-0.0625,0.125
1535253249752635,-0.3125,-0.4375,0.1875
1535253249775195,-0.9375,-0.25,-0.0625
1535253249789809,0,0.25,-0.125
1535253249812796,0.3125,0.1875,0
1535253249835354,-0.375,-0.3125,-0.3125
1535253249856466,-0.5,-0.6875,0.5
1535253249872952,-0.1875,-0.6875,0.75
1535253249895514,0,-0.1875,0.6875
1535253249916568,-0.1875,-0.0625,0.375
1535253249932618,0.1875,0.125,0.0625
1535253249955176,-0.5,-0.25,-0.0625
1535253249983751,0.4375,-0.3125,-0.0625
1535253249992782,0.1875,-0.25,-0.1875
1535253250015333,-0.3125,0,-0.4375
1535253250036386,0.3125,0.5625,-0.1875
1535253250052930,0.25,0.875,-0.0625
1535253250075415,0.5625,0.8125,0.0625
1535253250096550,-0.1875,0.5,0.0625
1535253250113147,0.125,0.0625,-0.125
1535253250135656,0.0625,0,-0.3125
1535253250156213,0.4375,0.3125,-0.125
1535253250172995,-0.0625,0.375,-0.0625
1535253250195315,0.375,0.5,-0.1875
1535253250216500,0.3125,0.5625,-0.4375
1535253250233414,0.125,0.75,-0.5
1535253250261488,-0.1875,0.5625,0
1535253250276528,0.125,0.4375,0.1875
1535253250293070,0.1875,0.25,-0.125
1535253250322650,0.3125,0.625,-0.3125
1535253250337785,-0.0625,0.375,-0.375
1535253250352739,-0.0625,0.0625,-0.4375
1535253250375301,0.5,-0.0625,-0.375
1535253250397849,-0.4375,-0.0625,-0.125
1535253250412392,0,0.4375,0.1875
1535253250435464,0.125,0.5625,-0.0625
1535253250457508,0.0625,0.8125,-0.3125
1535253250472048,0.625,0.8125,-0.375
1535253250495620,-0.3125,0.1875,-0.125
1535253250517669,-0.0625,0,-0.125
1535253250538760,0.3125,-0.125,-0.375
1535253250555311,-0.0625,-0.125,0.125
1535253250577834,0.25,0.0625,0.3125
1535253250592366,-0.125,0.25,-0.0625
1535253250615466,-0.1875,0.3125,0.0625
1535253250638030,0.25,0.0625,-0.125
1535253250652037,0.1875,0.1875,0.0625
1535253250675086,-0.1875,0.0625,0.125
1535253250697690,-0.8125,0.25,-0.1875
1535253250712379,-0.1875,0.375,-0.0625
1535253250735247,0.4375,0.875,-0.125
1535253250757809,0.3125,0.6875,0.0625
1535253250772345,-0.125,0.0625,0.375
1535253250796196,-0.75,-0.5,0.25
1535253250817977,-0.0625,-0.3125,-0.0625
1535253250839048,0.25,0.25,-0.0625
1535253250855569,-0.0625,0.5625,-0.0625
1535253250877756,0,0.1875,0.125
1535253250898682,-0.25,0.0625,0
1535253250915227,0.0625,0.0625,0.125
1535253250937786,0.1875,0.125,-0.125
1535253250958872,0.25,0.0625,-0.1875
1535253250965860,-0.25,-0.125,-0.25
1535253250980401,0.3125,0.0625,-0.625
1535253251002959,0.125,0.1875,-0.5625
1535253251025584,0.1875,-0.125,-0.4375
1535253251040837,0,0,-0.5
1535253251072147,0.3125,-0.0625,-0.25
1535253251094703,-0.1875,0.0625,-0.125
1535253251100716,-0.1875,-0.1875,-0.375
1535253251123278,0.25,0.0625,-0.3125
1535253251145839,0.375,0.25,-0.375
1535253251160416,-0.5625,0.25,-0.3125
1535253251183440,-0.125,0.25,-0.4375
1535253251206005,-0.25,0,-0.1875
1535253251221044,-0.1875,-0.25,-0.1875
1535253251243097,-0.1875,0,-0.0625
1535253251265660,-0.375,0.0625,0.25
1535253251281199,-0.25,0.375,0.125
1535253251303259,-0.375,0.1875,0.0625
1535253251325821,-0.3125,-0.1875,-0.25
1535253251348380,-0.125,-0.8125,-0.125
1535253251370939,-0.75,-0.875,0.1875
1535253251385978,-0.375,-0.625,0.1875
1535253251401024,-0.0625,-0.25,0.0625
1535253251430597,0,0.125,0.0625
1535253251445639,-0.1875,0.125,0.1875
1535253251460780,0.0625,0.375,-0.3125
1535253251483241,0,0.1875,-0.0625
1535253251505922,-0.25,-0.375,0.3125
1535253251520841,-0.375,-0.375,-0.125
1535253251543397,0,-0.4375,-0.0625
1535253251565644,0,-0.25,0.25
1535253251580494,-0.375,-0.25,0.25
1535253251603356,-0.125,0.1875,0.0625
1535253251625621,-0.4375,0.0625,-0.1875
1535253251648175,-0.25,-0.125,-0.125
1535253251666260,0.25,-0.125,-0.125
1535253251685787,-0.1875,-0.4375,0.1875
1535253251700844,-0.25,-0.5625,0.25
1535253251723398,-0.4375,-0.25,0.0625
1535253251745958,-0.25,0,-0.0625
1535253251761007,0,-0.0625,-0.1875
1535253251783647,-0.1875,-0.0625,0.125
1535253251805622,-0.1875,-0.25,0.1875
1535253251822178,-0.0625,0,-0.125
1535253251843332,-0.1875,0.25,0.3125
1535253251865782,0.0625,0.5625,-0.0625
1535253251882321,0.125,0.75,-0.125
1535253251904883,0.375,0.625,0
1535253251925940,-0.0625,0.875,0.1875
1535253251941983,0.125,1,0.4375
1535253251963538,-0.125,1,0.25
1535253251985596,0.125,1.125,-0.4375
1535253252002144,-0.8125,0.75,0
1535253252023198,0.25,0.25,0.0625
1535253252045858,0.0625,-0.25,0.1875
1535253252062311,-0.1875,-0.25,0
1535253252083365,-0.0625,0.25,-0.0625
1535253252105936,0.25,0.75,-0.375
1535253252122132,0.5,0.9375,-0.0625
1535253252143182,-0.0625,0.5625,0.1875
1535253252165736,-0.1875,0.125,0.0625
1535253252183782,-0.25,0,0.125
1535253252206344,0.6875,-0.0625,0.375
1535253252225930,0.125,-0.0625,0.1875
1535253252243949,-0.25,-0.1875,0.4375
1535253252263498,0.125,0.25,-0.0625
1535253252285665,0.125,0.375,0.25
1535253252303608,-0.0625,0.5,0.0625
1535253252323163,0.5,0.0625,0
1535253252345715,0.125,-0.0625,-0.25
1535253252363768,0.0625,-0.125,-0.1875
1535253252383313,-0.0625,0.125,-0.125
1535253252405874,0.5625,0.625,-0.3125
1535253252423421,0.5625,0.5,-0.375
1535253252442970,-0.0625,0.0625,-0.25
1535253252465688,0.3125,0.0625,-0.0625
1535253252484083,0.1875,-0.25,-0.0625
1535253252503132,0.625,-0.125,0
1535253252525893,-0.3125,0,0.125
1535253252543900,0.3125,0.375,0.1875
1535253252563334,0.4375,0.5,0.25
1535253252585856,0,0.125,0.1875
1535253252603901,0.1875,0.1875,-0.0625
1535253252622952,0.1875,0.3125,0
1535253252645510,0.125,0.375,0.3125
1535253252663632,-0.25,-0.375,0.375
1535253252683112,-0.6875,-0.6875,0.25
1535253252705676,-0.375,-0.375,0.125
1535253252723719,-0.125,-0.3125,0.125
1535253252743295,-0.0625,-0.4375,0.25
1535253252765833,-0.5625,-0.125,-0.0625
1535253252783379,-0.1875,0.3125,-0.3125
1535253252804515,0.1875,0.5,-0.1875
1535253252825490,0.1875,0.25,-0.0625
1535253252843562,-0.0625,0.125,-0.3125
1535253252864601,-0.1875,-0.125,0
1535253252885753,0.1875,-0.1875,0.1875
1535253252903864,0.0625,-0.3125,0.0625
1535253252924874,-0.1875,-0.125,0.125
1535253252945903,-0.25,0.125,-0.3125
1535253252963862,0.125,-0.125,-0.125
1535253252990932,0.0625,-0.4375,0.0625
1535253253005972,-0.375,-0.125,0.125
1535253253023520,-0.125,-0.4375,-0.1875
1535253253044623,-0.125,-0.3125,-0.25
1535253253065653,0.25,-0.1875,-0.3125
1535253253083679,-0.25,-0.5,-0.1875
1535253253104736,0.1875,-0.375,-0.125
1535253253125965,0.3125,-0.3125,0.1875
1535253253143838,-0.1875,-1.1875,0.125
1535253253165999,-0.25,-1.1875,-0.1875
1535253253185950,0.1875,-0.875,0.3125
1535253253203497,0.125,-0.1875,0.25
1535253253226142,0.0625,-0.125,-0.25
1535253253245609,-0.1875,0.0625,-0.3125
1535253253263803,-0.4375,0.125,-0.125
1535253253292425,0.5625,0.3125,-0.25
1535253253308776,-0.5,0.0625,0.125
1535253253323817,-0.6875,-0.375,0.375
1535253253346377,0,-0.4375,-0.1875
1535253253365938,0.0625,-0.25,-0.125
1535253253383822,0.25,-0.3125,-0.0625
1535253253406140,-0.3125,-0.1875,0.125
1535253253425629,-0.5,-0.25,-0.25
1535253253443812,0,-0.4375,-0.125
1535253253466196,0.25,-0.1875,-0.3125
1535253253485789,-0.0625,-0.0625,-0.3125
1535253253503867,-0.1875,0.25,-0.125
1535253253526356,0.375,0,-0.25
1535253253545908,-0.125,-0.3125,-0.0625
1535253253568467,0,-0.125,-0.25
1535253253593534,0,0.125,-0.25
1535253253605623,0.375,0.375,0.1875
1535253253623615,-0.0625,0.1875,-0.0625
1535253253653753,-0.4375,0.125,-0.125
1535253253665728,-0.625,0,0
1535253253683774,-0.25,-0.375,-0.125
1535253253706334,-0.375,-0.6875,0.25
1535253253727072,-1.1875,-0.5625,0.5
1535253253743487,-0.625,-0.1875,0.125
1535253253766023,0.1875,0.1875,-0.1875
1535253253787057,0.1875,0,-0.375
1535253253803595,-0.375,0.25,-0.375
1535253253826654,-0.6875,-0.1875,-0.1875
1535253253847210,-0.125,-0.0625,0.125
1535253253869769,-0.3125,-0.125,0
1535253253885812,-0.25,-0.4375,-0.0625
1535253253906868,-0.5625,-0.375,0.125
1535253253923410,-0.4375,-0.1875,0.0625
1535253253945972,0,-0.1875,0
1535253253967077,-0.125,-0.25,-0.125
1535253253983570,-0.5,-0.3125,0.0625
1535253254006133,-0.5,-0.1875,0
1535253254026736,0,0.0625,0.0625
1535253254042228,0.1875,-0.25,0.125
1535253254065288,-0.4375,-0.3125,-0.1875
1535253254087919,-0.25,-0.25,0
1535253254101957,0.125,-0.3125,0
1535253254125093,-0.8125,-0.3125,-0.1875
1535253254147783,-0.75,-0.5,0.125
1535253254169181,-0.25,-0.5,-0.4375
1535253254185208,0.0625,-0.4375,-0.4375
1535253254207765,-0.375,-0.6875,-0.25
1535253254222372,-0.5625,-0.25,-0.25
1535253254245432,-0.25,-0.3125,-0.4375
1535253254267991,0.1875,0,-0.1875
1535253254282030,-0.0625,0.125,-0.25
1535253254305090,-0.3125,-0.0625,-0.1875
1535253254327651,-0.0625,-0.5,0.3125
1535253254342187,-0.0625,-0.4375,0
1535253254365250,0,-0.5,-0.1875
1535253254404482,-0.5625,-0.5625,0.0625
1535253254408871,-0.25,-0.1875,0.25
1535253254425424,-0.625,-0.4375,0.0625
1535253254447983,-0.25,-0.1875,-0.25
1535253254462006,-0.1875,-0.125,0.0625
1535253254485583,-0.1875,0.0625,0.0625
1535253254507630,-0.3125,0.0625,0
1535253254522166,-0.5,-0.3125,0
1535253254545329,0,-0.1875,-0.1875
1535253254567788,-0.125,-0.0625,-0.125
1535253254588960,0,0.0625,0
1535253254605407,-0.3125,0.125,-0.1875
1535253254627953,-0.0625,0.25,-0.3125
1535253254649086,0.0625,0.3125,0
1535253254665568,0.125,0.4375,-0.125
1535253254687609,-0.125,0.0625,-0.125
1535253254709166,0.125,-0.1875,-0.4375
1535253254725208,0.1875,-0.0625,-0.4375
1535253254747806,-0.25,-0.25,-0.375
1535253254768860,0.375,-0.125,-0.25
1535253254785407,0.625,0.375,-0.3125
1535253254807968,-0.0625,0.0625,0.3125
1535253254829060,-0.375,-0.0625,0
1535253254845071,-0.625,-0.25,0.1875
1535253254867632,0.1875,-0.25,-0.25
1535253254888783,0.75,-0.125,0
1535253254905361,-0.1875,-0.3125,0.125
1535253254927282,-0.1875,0.3125,-0.125
1535253254948882,-0.125,0.375,0.0625
1535253254965391,0.875,0.75,0
1535253254987944,0.0625,0.5,0.0625
1535253255009050,0.0625,-0.125,0.25
1535253255025545,-0.0625,0,0.1875
1535253255047604,0.4375,0.0625,0.375
1535253255070163,0.25,0,0.1875
1535253255085203,0.1875,-0.0625,0
1535253255107766,0.25,-0.3125,0.1875
1535253255130323,-0.1875,0,0.0625
1535253255145364,0.125,0.25,0.0625
1535253255167924,0.1875,0.375,-0.125
1535253255190486,0.375,0.25,-0.1875
1535253255204522,-0.375,0.3125,0.0625
1535253255227589,0,0.25,0.25
1535253255256664,0.5,0.1875,-0.1875
1535253255264689,0.0625,-0.0625,-0.25
1535253255287744,0.125,0.0625,0
1535253255310307,0.1875,0.25,0.0625
1535253255324841,0.5,0.375,0.25
1535253255347903,0.5,0.1875,0
1535253255370463,0,0.125,0.3125
1535253255384535,0.125,-0.0625,0.4375
1535253255407835,0.4375,-0.1875,0.3125
1535253255430284,0,0,0
1535253255444771,0.25,0.0625,-0.125
1535253255467924,0.3125,0.3125,0.125
1535253255490280,0.4375,0.1875,0.125
1535253255511395,-0.1875,-0.25,0.125
1535253255535410,-0.3125,-0.125,0.3125
1535253255550440,0.1875,-0.3125,0.0625
1535253255571499,0.25,-0.125,0.125
1535253255587540,0.25,-0.0625,0.0625
1535253255610100,-0.0625,0.3125,-0.125
1535253255631154,0.3125,0.75,0.0625
1535253255647699,0.25,0.5625,0.0625
1535253255670258,0.1875,0.375,-0.0625
1535253255691417,0.1875,0,0.125
1535253255707859,-0.125,0.1875,0.3125
1535253255730457,0.125,0,0.0625
1535253255752152,0.5625,0,0
1535253255767874,0.1875,-0.1875,-0.0625
1535253255790076,0.125,-0.0625,0.1875
1535253255812787,-0.125,-0.3125,0.375
1535253255827677,-0.1875,0,0.1875
1535253255850244,0.125,0.0625,-0.125
1535253255871298,0.25,0.5,-0.0625
1535253255887839,0.375,0.5,-0.0625
1535253255910399,0.25,0.0625,-0.1875
1535253255931503,0.5,-0.125,-0.0625
1535253255948000,-0.3125,-0.5,-0.3125
1535253255970559,-0.25,-0.375,-0.3125
1535253255992756,0.125,0,-0.1875
1535253256008219,-0.125,-0.0625,-0.0625
1535253256030273,0.125,0.5,-0.25
1535253256052778,-0.1875,0.1875,0.125
1535253256067823,-0.4375,0,0.125
1535253256090379,-0.375,0,-0.125
1535253256112951,-0.25,-0.4375,0.125
1535253256127483,-0.4375,-0.8125,-0.0625
1535253256150538,-0.25,-0.5,-0.1875
1535253256172775,-0.375,-0.5,0.0625
1535253256187137,0.4375,-0.4375,0.375
1535253256210197,0,-0.125,0.25
1535253256232811,-0.75,-0.5,0.0625
1535253256246865,-0.125,-0.3125,0
1535253256270412,0.1875,-0.0625,0.125
1535253256292975,-0.0625,0.25,-0.3125
1535253256307511,-0.3125,0.375,-0.5625
1535253256330579,0.3125,0.3125,-0.125
1535253256352636,0.1875,0.375,-0.0625
1535253256367682,0.0625,0,-0.0625
1535253256390233,-0.25,-0.125,-0.375
1535253256412848,-0.125,-0.0625,0.125
1535253256427330,0.1875,-0.0625,-0.125
1535253256450391,0.1875,-0.1875,-0.25
1535253256472952,-0.5625,-0.4375,-0.1875
1535253256494018,0.0625,-0.3125,-0.25
1535253256510552,-0.25,-0.375,0.125
1535253256533123,0.0625,-0.375,-0.125
1535253256553920,-0.5625,-0.25,-0.125
1535253256570420,0.0625,0,-0.1875
1535253256592772,-0.125,0.25,-0.3125
1535253256621348,-0.125,0.125,-0.3125
1535253256630371,-0.125,-0.1875,-0.3125
1535253256652929,-0.1875,-0.375,-0.125
1535253256681505,-0.25,-0.375,-0.25
1535253256690531,-0.125,0.0625,-0.125
1535253256713002,-0.3125,0.3125,-0.1875
1535253256733692,0.3125,0.4375,-0.25
1535253256750433,0.0625,-0.125,-0.375
1535253256772892,-0.25,-0.125,-0.125
1535253256793948,-0.3125,-0.1875,-0.1875
1535253256810490,-0.1875,-0.4375,0.125
1535253256833052,-0.6875,-0.75,-0.0625
1535253256854106,-0.4375,-0.375,0
1535253256870201,0.125,0,-0.0625
1535253256898723,0,-0.0625,0.125
1535253256921327,-0.6875,-0.5,0
1535253256930311,-0.75,-0.5625,0
1535253256960467,-0.125,-0.5,-0.3125
1535253256982952,-0.5,-0.6875,-0.1875
1535253256990472,-0.625,-0.5,-0.1875
1535253257013035,-0.25,-0.1875,-0.4375
1535253257035091,-0.1875,0,-0.25
1535253257049628,-0.3125,-0.1875,-0.1875
1535253257072689,-0.125,-0.0625,0.1875
1535253257095252,-0.125,-0.0625,-0.125
1535253257109787,-0.25,-0.1875,-0.125
1535253257132848,-0.3125,-0.3125,-0.3125
1535253257155408,-0.1875,-0.25,-0.125
1535253257169607,-0.25,-0.3125,-0.25
1535253257192518,0.125,-0.625,-0.0625
1535253257215070,-0.8125,-1,0
1535253257229826,-0.625,-0.5,-0.125
1535253257252809,-0.3125,-0.3125,-0.375
1535253257275226,-0.0625,-0.0625,-0.375
1535253257289765,-0.75,-0.25,-0.3125
1535253257312833,-0.5,-0.25,-0.3125
1535253257335479,-0.3125,-0.125,-0.3125
1535253257349426,-0.25,-0.25,-0.25
1535253257372996,-0.625,-0.5,-0.3125
1535253257402566,-0.25,-0.375,-0.5
1535253257416197,-0.375,-0.1875,-0.125
1535253257432662,-0.4375,-0.375,0.0625
1535253257455206,-0.125,-0.25,-0.3125
1535253257477768,-0.375,-0.4375,-0.0625
1535253257492805,-0.4375,-0.125,0
1535253257515367,-0.5625,0.0625,-0.3125
1535253257536469,-0.125,-0.25,-0.4375
1535253257559028,0.0625,-0.25,-0.1875
1535253257575531,-0.8125,-0.375,0
1535253257596651,0,-0.5,0.3125
1535253257612687,-0.625,-0.75,-0.125
1535253257635248,-0.625,-0.625,0
1535253257656648,-0.25,-0.5625,-0.1875
1535253257672686,-0.125,-0.375,0.125
1535253257695244,-0.3125,-0.1875,-0.375
1535253257716300,-0.1875,0.3125,-0.375
1535253257732947,0.3125,0.75,-0.375
1535253257755402,0.0625,0.3125,0
1535253257776567,-0.1875,0.1875,0
1535253257793005,-0.1875,0.0625,-0.25
1535253257815189,0.25,0.25,0.4375
1535253257836671,-0.0625,-0.125,0.0625
1535253257853164,-0.125,-0.125,-0.0625
1535253257875230,-0.25,-0.0625,-0.125
1535253257897783,-0.1875,0.25,0
1535253257912823,0.1875,0.5,0.125
1535253257935382,-0.375,0.6875,0.25
1535253257957943,-0.125,0.9375,-0.125
1535253257972982,0.4375,0.375,-0.125
1535253258002935,0,0.1875,-0.25
1535253258017607,-0.25,0.1875,0.25
1535253258032152,0.25,0,0
1535253258055532,-0.0625,0.1875,-0.3125
1535253258078096,0.5625,0.5,-0.1875
1535253258092134,0,0.625,0.25
1535253258115191,0.375,0.375,0.25
1535253258138348,-0.0625,0.125,0.1875
1535253258152288,0.25,0.25,0.25
1535253258175352,0.375,0,0
1535253258197909,0.1875,0.0625,-0.125
1535253258212192,-0.125,0.0625,0.0625
1535253258235517,0.875,0.375,0.125
1535253258257570,0.25,0.0625,0.25
1535253258272431,0.3125,-0.0625,0.0625
1535253258295672,-0.75,-0.125,-0.0625
1535253258325251,0.5625,0,0.25
1535253258332269,0.375,-0.0625,0.0625
1535253258355328,-0.1875,-0.375,0.25
1535253258377889,-0.1875,0,-0.0625
1535253258398950,0.3125,0.5625,-0.0625
1535253258415487,0.625,0.625,-0.25
1535253258437912,0.25,0.3125,0.0625
1535253258459104,0.125,0.1875,-0.375
1535253258475147,0.375,0.3125,-0.125
1535253258497835,0.4375,0.1875,0.3125
1535253258518762,0.4375,-0.25,0.125
1535253258535306,0,-0.25,0
1535253258557365,-0.1875,-0.0625,0.0625
1535253258578925,0.5625,0.1875,0.1875
1535253258595469,0,0.1875,0.0625
1535253258618027,-0.4375,-0.0625,-0.0625
1535253258639087,0.5625,-0.0625,-0.25
1535253258655135,0.0625,0.375,-0.25
1535253258677864,0.1875,0.0625,0.125
1535253258698750,0.5,0.0625,-0.0625
1535253258715496,0.1875,0.1875,-0.25
1535253258737850,-0.0625,-0.25,0.1875
1535253258758904,-0.0625,-0.0625,-0.0625
1535253258775446,0.1875,0.1875,-0.0625
1535253258798007,0.25,0.3125,0.1875
1535253258820568,0.25,0.1875,-0.0625
1535253258842640,0.1875,0.1875,0.0625
1535253258864186,0.125,0.125,0
1535253258880277,-0.125,-0.0625,0.125
1535253258895266,0.125,-0.0625,0.125
1535253258917840,-0.0625,-0.0625,-0.1875
1535253258940272,0.125,-0.125,0.1875
1535253258954602,0.25,-0.1875,0.4375
1535253258977768,-0.4375,0,0.125
1535253259000221,-0.1875,0.0625,0.125
1535253259014761,0.5625,-0.125,-0.0625
1535253259037821,0.1875,-0.3125,0.0625
1535253259060382,-0.0625,-0.25,-0.0625
1535253259074418,-0.3125,0,-0.125
1535253259097985,0.4375,0.5,-0.125
1535253259120546,0.25,0.6875,-0.3125
1535253259134592,0.0625,0.125,-0.4375
1535253259157641,0.0625,0.0625,-0.3125
1535253259180202,0.25,-0.0625,-0.1875
1535253259202816,0.3125,-0.0625,0
1535253259217801,0.0625,-0.25,-0.125
1535253259240860,0.5625,-0.0625,-0.125
1535253259254401,0.1875,-0.3125,-0.0625
1535253259277458,-0.1875,-0.4375,-0.125
1535253259300022,0.1875,-0.0625,0
1535253259321713,-0.25,0.125,-0.1875
1535253259338124,-0.0625,0.1875,-0.25
1535253259360320,0.25,0.375,-0.4375
1535253259381237,0.1875,0.125,-0.375
1535253259398120,0.0625,-0.25,-0.125
1535253259420339,-0.25,-0.375,-0.25
1535253259441395,-0.1875,-0.25,0
1535253259458021,0.1875,-0.125,0.0625
1535253259479998,-0.25,0.125,-0.0625
1535253259501556,0.125,0.0625,0.0625
1535253259518100,-0.1875,0.125,0.0625
1535253259540365,-0.375,-0.0625,0
1535253259561328,-0.1875,-0.125,-0.1875
1535253259577839,0.0625,0,0.1875
1535253259600319,-0.5625,-0.3125,0.25
1535253259621373,-0.375,-0.3125,-0.1875
1535253259637917,-0.25,-0.25,0.0625
1535253259660476,-0.1875,-0.1875,0.4375
1535253259681582,-0.375,0.25,0.25
1535253259698116,-0.75,-0.3125,0.4375
1535253259720251,-0.1875,-0.375,-0.375
1535253259741195,-0.25,-0.25,-0.1875
1535253259757736,-0.625,-0.5625,0.0625
1535253259780486,-0.1875,-0.1875,-0.125
1535253259802860,0.0625,-0.75,-0.25
1535253259817898,0.3125,-0.5,-0.125
1535253259840463,-0.4375,-0.4375,0.125
1535253259863018,0.0625,-0.125,-0.4375
1535253259877055,0.25,-0.5,-0.375
1535253259900334,0.0625,-0.0625,-0.125
1535253259922841,-0.8125,-0.625,-0.3125
1535253259943735,-0.3125,-0.5,-0.25
1535253259960280,0.3125,0.1875,-0.4375
1535253259982885,0.125,-0.1875,-0.0625
1535253259996879,-1.0625,-0.8125,0.25
1535253260020434,-0.375,-0.3125,-0.1875
1535253260042493,-0.4375,-0.1875,-0.3125
1535253260057031,-0.3125,0,-0.3125
1535253260080092,-0.0625,-0.0625,-0.4375
1535253260102654,-0.625,-0.3125,-0.375
1535253260117397,-0.375,-0.375,-0.4375
1535253260140255,-0.4375,-0.6875,0.0625
1535253260162825,0,-0.4375,-0.1875
1535253260177353,-0.1875,-0.5625,-0.125
1535253260200414,-0.5,-0.75,-0.125
1535253260229030,-0.3125,-0.1875,-0.1875
1535253260251557,-0.25,0.375,0.0625
1535253260267695,-0.375,0,0.0625
1535253260290176,0.4375,0.3125,0.375
1535253260303691,0.9375,-1.0625,-0.1875
1535253260320230,0.4375,-1.9375,0.1875
1535253260342824,1.9375,-2.5625,-0.1875
1535253260363659,0.625,-3.3125,-0.375
1535253260380260,0.125,-1.3125,0.25
1535253260402762,-2.1875,-1.6875,-0.0625
1535253260423818,1,0.6875,-0.5
1535253260430839,0.75,-0.375,-0.6875
1535253260445486,-1.0625,0.75,0.125
1535253260467936,-0.1875,0.9375,0.0625
1535253260490545,-0.25,1,-0.0625
1535253260505584,-0.3125,1.1875,-0.1875
1535253260529650,-0.5625,1.0625,0.3125
1535253260550706,0.875,1.375,-0.25
1535253260565745,0.75,0.8125,0.0625
1535253260588337,-0.3125,0.25,0.375
1535253260610912,0.3125,-0.25,0.25
1535253260625907,-0.125,0,0.5
1535253260648612,0.0625,0.4375,0.5
1535253260670568,0.125,0.1875,0.3125
1535253260685566,-0.3125,0,0.1875
1535253260708166,0.125,0.5625,0.0625
1535253260730689,-0.25,0.4375,0.25
1535253260745777,-0.1875,0.1875,0.25
1535253260775819,0.6875,1.125,0.625
1535253260790846,-0.4375,0.4375,0.375
1535253260805886,0.3125,0,-0.1875
1535253260828462,-0.25,-0.625,-0.0625
1535253260850614,-0.1875,-0.3125,0.5
1535253260867056,-0.0625,0.8125,0.375
1535253260888145,-0.5625,0.625,0.8125
1535253260910674,-0.375,0.4375,0
1535253260925704,0.3125,0,0
