timestamp,x,y,z,w
1535253223688080,-0.410706,-0.479004,0.454834,0.628479
1535253223710909,-0.409912,-0.478577,0.455139,0.62915
1535253223726159,-0.409424,-0.478271,0.455017,0.6297
1535253223749722,-0.409912,-0.478149,0.454773,0.6297
1535253223770867,-0.4104,-0.4776,0.454895,0.6297
1535253223786053,-0.410706,-0.477356,0.454956,0.6297
1535253223809436,-0.411133,-0.477112,0.455078,0.629456
1535253223830937,-0.411743,-0.476746,0.455322,0.62915
1535253223878564,-0.41272,-0.476379,0.455383,0.628723
1535253223879567,-0.41333,-0.476135,0.455505,0.628479
1535253223900122,-0.413696,-0.475952,0.455566,0.628296
1535253223914159,-0.414429,-0.476135,0.455322,0.627869
1535253223929199,-0.415039,-0.476196,0.455261,0.627502
1535253223955268,-0.415222,-0.476074,0.455322,0.62738
1535253224005412,-0.414856,-0.475708,0.455566,0.627747
1535253224005904,-0.41449,-0.475464,0.455627,0.628113
1535253224011919,-0.414185,-0.475403,0.455566,0.628418
1535253224025455,-0.414001,-0.475159,0.455566,0.628662
1535253224049018,-0.414063,-0.474854,0.455566,0.628906
1535253224070575,-0.41449,-0.474609,0.455383,0.628967
1535253224085615,-0.414856,-0.474182,0.455261,0.629089
1535253224108224,-0.415344,-0.473755,0.455261,0.62915
1535253224130735,-0.41571,-0.473389,0.4552,0.62915
1535253224145806,-0.41626,-0.473206,0.454956,0.629089
1535253224168336,-0.416748,-0.473022,0.454834,0.629028
1535253224190895,-0.417114,-0.472778,0.454834,0.628967
1535253224205935,-0.417542,-0.472412,0.454956,0.628845
1535253224228040,-0.417908,-0.471924,0.455322,0.628784
1535253224250555,-0.418091,-0.471436,0.455688,0.628723
1535253224265690,-0.41864,-0.47113,0.455933,0.628418
1535253224288154,-0.419312,-0.471008,0.456177,0.627869
1535253224310714,-0.419617,-0.470581,0.456787,0.627563
1535253224325754,-0.419922,-0.470032,0.457458,0.627258
1535253224348314,-0.42041,-0.469543,0.458008,0.626892
1535253224370874,-0.420898,-0.469055,0.458679,0.626465
1535253224385914,-0.42157,-0.468567,0.459412,0.625854
1535253224407973,-0.422791,-0.468079,0.460205,0.624756
1535253224430533,-0.424011,-0.467407,0.461304,0.623596
1535253224445573,-0.425354,-0.466064,0.463013,0.622498
1535253224468177,-0.427307,-0.464355,0.464905,0.620972
1535253224490693,-0.429688,-0.46228,0.467102,0.619263
1535253224521776,-0.432312,-0.460083,0.46936,0.617371
1535253224528294,-0.434875,-0.457581,0.471802,0.61554
1535253224550854,-0.437317,-0.454834,0.474426,0.613831
1535253224565893,-0.440002,-0.451904,0.477234,0.611877
1535253224587952,-0.442993,-0.448792,0.480286,0.60968
1535253224610511,-0.445862,-0.445679,0.483215,0.607544
1535253224625553,-0.448486,-0.442261,0.486145,0.605713
1535253224648112,-0.451477,-0.439026,0.489075,0.603455
1535253224670672,-0.454773,-0.435852,0.491943,0.600952
1535253224688720,-0.457947,-0.432434,0.494873,0.598633
1535253224708272,-0.460938,-0.428528,0.498108,0.596436
1535253224730832,-0.463867,-0.424622,0.501343,0.594238
1535253224745872,-0.467102,-0.420776,0.504395,0.591858
1535253224768433,-0.47052,-0.416565,0.507507,0.589478
1535253224790552,-0.473755,-0.411987,0.510986,0.587158
1535253224807036,-0.476868,-0.407166,0.514465,0.5849
1535253224828091,-0.480286,-0.4021,0.518066,0.582458
1535253224850986,-0.483826,-0.396667,0.521912,0.579773
1535253224873329,-0.487427,-0.390808,0.525879,0.577209
1535253224888251,-0.490845,-0.384705,0.529785,0.574768
1535253224910811,-0.494141,-0.378662,0.533875,0.572205
1535253224933371,-0.497742,-0.372559,0.537903,0.569275
1535253224948411,-0.502075,-0.366516,0.54187,0.565735
1535253224970470,-0.506348,-0.360596,0.545715,0.56189
1535253224996068,-0.510559,-0.354736,0.549622,0.558044
1535253225011579,-0.514526,-0.348816,0.553589,0.554199
1535253225030629,-0.518555,-0.342957,0.557556,0.550049
1535253225053189,-0.522339,-0.337402,0.561279,0.546082
1535253225071238,-0.52594,-0.331726,0.564941,0.542419
1535253225090790,-0.529297,-0.325378,0.569153,0.538513
1535253225113351,-0.532654,-0.319031,0.573486,0.534363
1535253225130896,-0.535828,-0.312988,0.577576,0.530396
1535253225150950,-0.539063,-0.306946,0.581604,0.526245
1535253225173008,-0.542664,-0.300964,0.585571,0.521606
1535253225191056,-0.546082,-0.294983,0.589417,0.517029
1535253225210725,-0.549377,-0.28894,0.59314,0.512695
1535253225240753,-0.552307,-0.282715,0.596741,0.508789
1535253225251217,-0.554871,-0.276428,0.600403,0.505188
1535253225270773,-0.557617,-0.270386,0.604126,0.500977
1535253225293328,-0.560608,-0.264587,0.607849,0.496216
1535253225310875,-0.563721,-0.258789,0.611389,0.491394
1535253225331931,-0.566467,-0.25293,0.614929,0.486755
1535253225355995,-0.568909,-0.246765,0.618591,0.482544
1535253225371081,-0.57135,-0.240295,0.622192,0.478149
1535253225392093,-0.573914,-0.234192,0.625854,0.473328
1535253225413147,-0.576416,-0.228333,0.629517,0.468262
1535253225431195,-0.579041,-0.222717,0.632935,0.463135
1535253225452252,-0.581848,-0.217285,0.635925,0.45813
1535253225473307,-0.58429,-0.211609,0.638733,0.453674
1535253225490854,-0.586609,-0.205994,0.641479,0.449341
1535253225517929,-0.589294,-0.200928,0.644287,0.444153
1535253225532966,-0.591858,-0.196228,0.647034,0.438721
1535253225566059,-0.593872,-0.191162,0.649963,0.43396
1535253225572070,-0.595581,-0.185913,0.652893,0.429443
1535253225593125,-0.597351,-0.180786,0.655701,0.424927
1535253225611227,-0.598999,-0.175659,0.658569,0.420288
1535253225631280,-0.600586,-0.170593,0.661499,0.415466
1535253225654293,-0.602356,-0.165771,0.664429,0.410095
1535253225670834,-0.60437,-0.161133,0.667114,0.404663
1535253225692898,-0.606201,-0.156006,0.669739,0.399475
1535253225713948,-0.607727,-0.150269,0.672546,0.394653
1535253225730516,-0.609436,-0.144409,0.675476,0.389099
1535253225753107,-0.611389,-0.138794,0.678467,0.382874
1535253225773606,-0.61322,-0.133423,0.681213,0.376892
1535253225790205,-0.614563,-0.127686,0.683899,0.371765
1535253225820357,-0.615662,-0.121643,0.686768,0.36676
1535253225833821,-0.616882,-0.116211,0.689453,0.361328
1535253225850311,-0.618103,-0.111328,0.691956,0.355957
1535253225872921,-0.61908,-0.106506,0.694214,0.351318
1535253225901445,-0.61969,-0.101685,0.696533,0.347107
1535253225910470,-0.6203,-0.0971069,0.698914,0.342529
1535253225933071,-0.621094,-0.0931396,0.701111,0.337585
1535253225953624,-0.621948,-0.0891724,0.703003,0.33313
1535253225970672,-0.622498,-0.0852661,0.704773,0.329346
1535253225992729,-0.623108,-0.0813599,0.706543,0.325439
1535253226013812,-0.623901,-0.078064,0.708191,0.321167
1535253226030331,-0.624573,-0.0747681,0.709961,0.316711
1535253226052889,-0.625244,-0.0716553,0.71167,0.312073
1535253226073946,-0.625732,-0.0679932,0.71344,0.307922
1535253226090491,-0.626099,-0.0640259,0.715088,0.304199
1535253226119065,-0.626465,-0.0599976,0.716858,0.30011
1535253226135181,-0.62677,-0.0563354,0.718872,0.295227
1535253226157673,-0.627014,-0.0532837,0.720886,0.290405
1535253226173712,-0.627197,-0.0501099,0.722473,0.28656
1535253226193764,-0.627258,-0.0462036,0.723938,0.283386
1535253226210307,-0.627136,-0.0427856,0.725708,0.279541
1535253226232923,-0.627014,-0.039917,0.7276,0.275391
1535253226253977,-0.626892,-0.0373535,0.729187,0.27179
1535253226270469,-0.627014,-0.0346069,0.730408,0.268677
1535253226293059,-0.627014,-0.031311,0.731567,0.265747
1535253226314112,-0.626953,-0.0281982,0.733154,0.261902
1535253226330128,-0.62677,-0.0258789,0.734863,0.257813
1535253226352687,-0.626526,-0.0236816,0.736389,0.254272
1535253226373747,-0.62616,-0.0205688,0.737976,0.250854
1535253226397983,-0.625488,-0.0174561,0.739868,0.247009
1535253226412849,-0.624878,-0.0153809,0.741699,0.243103
1535253226433944,-0.624207,-0.0135498,0.743347,0.239868
1535253226449569,-0.623291,-0.0112915,0.745178,0.236816
1535253226480528,-0.622314,-0.00939941,0.747009,0.233582
1535253226494069,-0.621277,-0.00775146,0.74884,0.23053
1535253226509605,-0.620544,-0.0065918,0.750305,0.227783
1535253226532672,-0.620056,-0.00549316,0.751404,0.225525
1535253226554224,-0.619934,-0.00445557,0.752075,0.223816
1535253226576282,-0.619934,-0.00390625,0.75238,0.222595
1535253226600347,-0.6203,-0.00372314,0.752319,0.221802
1535253226613928,-0.62085,-0.00427246,0.751831,0.221985
1535253226630928,-0.621216,-0.00488281,0.751099,0.22345
1535253226653491,-0.621399,-0.0057373,0.750427,0.225098
1535253226675560,-0.621643,-0.00775146,0.749634,0.226929
1535253226689583,-0.621826,-0.0098877,0.748657,0.229736
1535253226712648,-0.621399,-0.012085,0.747925,0.233032
1535253226735207,-0.620422,-0.0159302,0.747559,0.236511
1535253226756261,-0.619751,-0.0206909,0.746887,0.240173
1535253226778866,-0.619507,-0.0253296,0.745361,0.244934
1535253226795366,-0.619629,-0.0300293,0.743164,0.25061
1535253226816466,-0.619873,-0.0350342,0.740723,0.256653
1535253226832966,-0.620178,-0.0402832,0.738098,0.262695
1535253226863058,-0.620483,-0.0452881,0.735352,0.268616
1535253226876585,-0.620667,-0.0501709,0.732849,0.274109
1535253226900145,-0.620789,-0.0549316,0.730469,0.279236
1535253226915185,-0.620911,-0.0598755,0.727722,0.285095
1535253226936242,-0.620667,-0.0648804,0.725098,0.291138
1535253226952787,-0.619995,-0.069519,0.722717,0.297241
1535253226975358,-0.619263,-0.074707,0.720398,0.303284
1535253226997907,-0.618225,-0.0797729,0.717957,0.309753
1535253227012945,-0.617126,-0.0852661,0.715454,0.316223
1535253227035505,-0.615906,-0.0914917,0.713013,0.322266
1535253227064124,-0.614563,-0.0980225,0.71051,0.328369
1535253227072664,-0.613098,-0.104126,0.708069,0.334473
1535253227095312,-0.611389,-0.109009,0.705688,0.341064
1535253227116381,-0.609558,-0.11438,0.703308,0.347351
1535253227132763,-0.607849,-0.121033,0.700928,0.352966
1535253227155324,-0.606079,-0.12738,0.698486,0.358582
1535253227176379,-0.604309,-0.133179,0.696106,0.364014
1535253227206488,-0.602295,-0.13855,0.693726,0.369873
1535253227215497,-0.600403,-0.144287,0.691101,0.37561
1535253227236572,-0.598572,-0.149902,0.688477,0.381042
1535253227252581,-0.596802,-0.155701,0.685913,0.386169
1535253227275144,-0.595093,-0.161255,0.683105,0.391418
1535253227296199,-0.593079,-0.167358,0.680237,0.396912
1535253227312741,-0.591125,-0.173645,0.677063,0.402466
1535253227335324,-0.588989,-0.179321,0.674072,0.408081
1535253227356357,-0.586487,-0.184631,0.671265,0.413879
1535253227372401,-0.583923,-0.190308,0.668396,0.419556
1535253227395467,-0.581421,-0.196411,0.665649,0.4245
1535253227416518,-0.579163,-0.202576,0.662781,0.42926
1535253227432063,-0.576721,-0.208374,0.659851,0.434143
1535253227455120,-0.573853,-0.214111,0.65686,0.439758
1535253227483735,-0.571167,-0.219727,0.653748,0.445068
1535253227506260,-0.568726,-0.225708,0.650818,0.449463
1535253227515282,-0.566284,-0.23175,0.647766,0.453918
1535253227536380,-0.563416,-0.237183,0.644775,0.458862
1535253227560400,-0.560547,-0.242371,0.641907,0.463623
1535253227575439,-0.558167,-0.247864,0.638794,0.467957
1535253227598000,-0.555664,-0.253052,0.635742,0.472229
1535253227612042,-0.552795,-0.258118,0.632996,0.476563
1535253227642622,-0.549622,-0.262817,0.630249,0.481201
1535253227657660,-0.54657,-0.267517,0.627502,0.485718
1535253227672198,-0.543823,-0.272644,0.624756,0.489441
1535253227695325,-0.541138,-0.277466,0.621704,0.493591
1535253227717824,-0.538513,-0.282471,0.61853,0.497681
1535253227738918,-0.53595,-0.287415,0.615173,0.501709
1535253227754956,-0.533447,-0.292297,0.611755,0.505676
1535253227793556,-0.530762,-0.296814,0.608521,0.509766
1535253227799073,-0.52832,-0.301819,0.605164,0.513428
1535253227815115,-0.525879,-0.306885,0.601746,0.516907
1535253227837707,-0.523132,-0.311584,0.598633,0.520386
1535253227858817,-0.520264,-0.315979,0.595581,0.52417
1535253227875277,-0.517212,-0.320313,0.592773,0.527649
1535253227898102,-0.514099,-0.324829,0.589966,0.531128
1535253227918902,-0.511292,-0.32959,0.587036,0.53418
1535253227935443,-0.508728,-0.334473,0.584106,0.536804
1535253227957996,-0.505981,-0.338684,0.581238,0.539856
1535253227980556,-0.503052,-0.342529,0.578491,0.543091
1535253227995095,-0.500122,-0.346252,0.575928,0.546204
1535253228017654,-0.497864,-0.350586,0.573242,0.54834
1535253228039212,-0.495789,-0.354614,0.570496,0.550415
1535253228061305,-0.493225,-0.358093,0.567871,0.553223
1535253228077862,-0.490295,-0.361023,0.565491,0.556274
1535253228098906,-0.48761,-0.364624,0.563293,0.558594
1535253228114915,-0.485291,-0.368286,0.560913,0.560608
1535253228137978,-0.483032,-0.371826,0.558289,0.562805
1535253228159032,-0.480469,-0.374878,0.555847,0.565369
1535253228175577,-0.477966,-0.378174,0.553467,0.567566
1535253228198137,-0.475708,-0.381714,0.551086,0.569458
1535253228219194,-0.473389,-0.38501,0.548645,0.571533
1535253228235310,-0.470764,-0.388,0.546265,0.573914
1535253228257798,-0.468018,-0.391174,0.544006,0.576233
1535253228278848,-0.465515,-0.394409,0.541565,0.578308
1535253228294891,-0.463196,-0.397522,0.539063,0.580383
1535253228317958,-0.460632,-0.400452,0.536499,0.582764
1535253228340515,-0.457886,-0.403198,0.533997,0.585327
1535253228354806,-0.455322,-0.405823,0.531555,0.587769
1535253228378152,-0.453003,-0.408447,0.529114,0.589905
1535253228398668,-0.4505,-0.411316,0.526489,0.592163
1535253228414714,-0.44812,-0.41449,0.523743,0.594177
1535253228437772,-0.445801,-0.417664,0.521179,0.595947
1535253228458901,-0.443481,-0.420959,0.518555,0.597717
1535253228474871,-0.441162,-0.4245,0.515808,0.599243
1535253228497936,-0.438782,-0.42749,0.513489,0.600891
1535253228519105,-0.436462,-0.430054,0.511353,0.602539
1535253228534546,-0.434143,-0.432495,0.509338,0.604248
1535253228557918,-0.431946,-0.434753,0.507324,0.605835
1535253228580687,-0.430176,-0.437317,0.50531,0.606934
1535253228594707,-0.428711,-0.439636,0.503357,0.60791
1535253228618269,-0.427368,-0.441772,0.501343,0.608948
1535253228640328,-0.425903,-0.443787,0.49939,0.610107
1535253228661454,-0.424377,-0.445496,0.49762,0.611389
1535253228678033,-0.423035,-0.447266,0.495911,0.612366
1535253228700490,-0.421936,-0.448975,0.494141,0.613342
1535253228714526,-0.420776,-0.450684,0.492432,0.614258
1535253228738132,-0.419678,-0.452148,0.490784,0.615295
1535253228760162,-0.418518,-0.453552,0.489258,0.616272
1535253228774720,-0.417419,-0.454712,0.487854,0.617249
1535253228797746,-0.41626,-0.455872,0.486572,0.618225
1535253228820306,-0.415283,-0.456909,0.485291,0.619019
1535253228834847,-0.414978,-0.458313,0.483643,0.619507
1535253228857930,-0.414673,-0.459595,0.482178,0.619934
1535253228880579,-0.413696,-0.460571,0.481018,0.620728
1535253228894580,-0.412659,-0.461548,0.479858,0.621582
1535253228918163,-0.412109,-0.462585,0.478577,0.622192
1535253228940227,-0.41156,-0.463501,0.477417,0.622742
1535253228954817,-0.410645,-0.464355,0.476501,0.623413
1535253228977827,-0.409851,-0.465027,0.475769,0.624023
1535253229000387,-0.409424,-0.465637,0.475098,0.624329
1535253229021558,-0.409058,-0.466125,0.474609,0.624634
1535253229037987,-0.408875,-0.46637,0.474304,0.624756
1535253229060572,-0.408997,-0.466125,0.474426,0.624756
1535253229081642,-0.409241,-0.46582,0.474854,0.624512
1535253229097649,-0.409607,-0.465149,0.475586,0.624268
1535253229120705,-0.410156,-0.464294,0.476318,0.624023
1535253229148884,-0.410645,-0.463196,0.477173,0.623779
1535253229157803,-0.411682,-0.462097,0.47821,0.623108
1535253229180404,-0.413086,-0.460327,0.479675,0.622314
1535253229201422,-0.41394,-0.457947,0.481628,0.62207
1535253229217479,-0.413818,-0.454956,0.484314,0.622253
1535253229240527,-0.412964,-0.451965,0.487488,0.622498
1535253229261581,-0.411377,-0.448547,0.491211,0.623108
1535253229277127,-0.408997,-0.444336,0.495728,0.624146
1535253229300186,-0.406799,-0.43927,0.501038,0.624939
1535253229321742,-0.403931,-0.433594,0.507324,0.625671
1535253229337789,-0.399231,-0.426208,0.515198,0.627319
1535253229360441,-0.391846,-0.416992,0.524658,0.63031
1535253229381505,-0.384033,-0.405396,0.536316,0.632874
1535253229403959,-0.375977,-0.391968,0.55011,0.634338
1535253229420504,-0.366638,-0.375977,0.565796,0.635681
1535253229449082,-0.353638,-0.355774,0.583252,0.638916
1535253229457111,-0.33783,-0.33313,0.602112,0.642151
1535253229480515,-0.322021,-0.311829,0.621399,0.642578
1535253229502724,-0.307556,-0.29248,0.638916,0.641541
1535253229523881,-0.294067,-0.27356,0.653625,0.641418
1535253229540321,-0.282043,-0.254883,0.666199,0.641541
1535253229562884,-0.270264,-0.237061,0.676941,0.642273
1535253229584060,-0.257324,-0.220337,0.686218,0.643677
1535253229600483,-0.24353,-0.206482,0.693115,0.64624
1535253229623042,-0.227783,-0.196289,0.696533,0.651428
1535253229644098,-0.210266,-0.189575,0.696716,0.659058
1535253229660140,-0.192444,-0.185669,0.694824,0.667542
1535253229689224,-0.169373,-0.185181,0.692566,0.67627
1535253229706765,-0.143799,-0.187805,0.687134,0.68689
1535253229728003,-0.119263,-0.192322,0.676514,0.700806
1535253229742885,-0.0958252,-0.194824,0.664246,0.715271
1535253229764026,-0.0726318,-0.193298,0.654419,0.727356
1535253229780463,-0.0552368,-0.19342,0.646362,0.735962
1535253229803026,-0.0431519,-0.197327,0.638245,0.742859
1535253229824080,-0.0391846,-0.204468,0.630493,0.747681
1535253229840328,-0.0408936,-0.210876,0.623169,0.751953
1535253229862680,-0.0444336,-0.215942,0.616455,0.755859
1535253229883738,-0.0458374,-0.218811,0.611267,0.759155
1535253229900280,-0.0455933,-0.219849,0.608276,0.76123
1535253229922864,-0.0436401,-0.218994,0.606506,0.763
1535253229943937,-0.0407715,-0.21698,0.604919,0.765015
1535253229960442,-0.0380249,-0.21637,0.603638,0.766357
1535253229983001,-0.0366211,-0.218445,0.601685,0.767395
1535253230004158,-0.0348511,-0.219116,0.600159,0.768433
1535253230020600,-0.0343018,-0.217651,0.600403,0.768738
1535253230042658,-0.034729,-0.218689,0.599792,0.76886
1535253230063795,-0.0340576,-0.22229,0.598022,0.769226
1535253230080483,-0.0325928,-0.22467,0.597229,0.769226
1535253230102818,-0.0302734,-0.224976,0.59668,0.769653
1535253230124040,-0.0285034,-0.222046,0.595642,0.771362
1535253230140451,-0.029541,-0.216919,0.594604,0.77356
1535253230163060,-0.0330811,-0.21405,0.593018,0.775452
1535253230184101,-0.0374756,-0.213135,0.590515,0.777405
1535253230199784,-0.0420532,-0.212097,0.588379,0.779114
1535253230222644,-0.0452881,-0.210144,0.588196,0.779602
1535253230260243,-0.0457153,-0.208618,0.589172,0.779236
1535253230262834,-0.0455322,-0.208374,0.589722,0.778931
1535253230282797,-0.0444946,-0.20813,0.5896,0.779114
1535253230304105,-0.0446167,-0.208374,0.590149,0.778625
1535253230320436,-0.0437012,-0.208496,0.590698,0.778198
1535253230342958,-0.0430298,-0.208679,0.591248,0.777832
1535253230364015,-0.0435181,-0.209778,0.591553,0.777222
1535253230380057,-0.0454712,-0.211426,0.591309,0.776855
1535253230403121,-0.046875,-0.212585,0.591248,0.776489
1535253230425190,-0.046814,-0.212708,0.59137,0.776428
1535253230440222,-0.0465088,-0.212646,0.591492,0.776367
1535253230462910,-0.0465698,-0.213745,0.591003,0.776367
1535253230485336,-0.0471802,-0.215576,0.590515,0.776245
1535253230500375,-0.0471802,-0.216614,0.590515,0.77594
1535253230522977,-0.0465698,-0.217163,0.590454,0.775879
1535253230545539,-0.0465698,-0.218079,0.590271,0.775757
1535253230560126,-0.046875,-0.219543,0.590149,0.775391
1535253230582598,-0.0469971,-0.220581,0.589844,0.77533
1535253230605158,-0.0467529,-0.221619,0.589661,0.775208
1535253230619698,-0.046936,-0.222778,0.589539,0.774963
1535253230642755,-0.0475464,-0.223572,0.589417,0.77478
1535253230665321,-0.0478516,-0.223694,0.589478,0.774658
1535253230679877,-0.0476074,-0.223389,0.589539,0.774719
1535253230702914,-0.0475464,-0.223083,0.589478,0.774902
1535253230725477,-0.0477905,-0.223206,0.589294,0.774963
1535253230739551,-0.0476074,-0.2229,0.589111,0.775208
1535253230762574,-0.0476074,-0.2229,0.589111,0.775208
1535253230792825,-0.0477295,-0.223206,0.588989,0.775208
1535253230799674,-0.0477905,-0.223633,0.588867,0.775208
1535253230822771,-0.0472412,-0.223633,0.588745,0.775269
1535253230845297,-0.0471802,-0.223633,0.588745,0.77533
1535253230859844,-0.0474243,-0.223999,0.588867,0.775085
1535253230882896,-0.0474854,-0.22406,0.588867,0.775085
1535253230905489,-0.0472412,-0.223816,0.588806,0.775146
1535253230926512,-0.0470581,-0.22345,0.588745,0.77533
1535253230943053,-0.0466309,-0.223206,0.588745,0.775452
1535253230965615,-0.0466309,-0.223267,0.588745,0.775452
1535253230986272,-0.0466309,-0.223267,0.588745,0.775452
1535253231002785,-0.0463257,-0.222717,0.588806,0.775574
1535253231025343,-0.0458984,-0.221863,0.588928,0.775696
1535253231046401,-0.0457764,-0.221436,0.589111,0.775696
1535253231070557,-0.0458374,-0.221741,0.589172,0.775574
1535253231091611,-0.0458984,-0.22229,0.589172,0.775452
1535253231114083,-0.0460205,-0.222595,0.58905,0.775452
1535253231122603,-0.0463867,-0.223328,0.588989,0.775269
1535253231145163,-0.0466309,-0.224121,0.588928,0.775085
1535253231166267,-0.046875,-0.22467,0.588562,0.775146
1535253231183128,-0.0472412,-0.225525,0.58844,0.774963
1535253231205456,-0.0471802,-0.225769,0.588745,0.774658
1535253231226488,-0.0466919,-0.225708,0.588928,0.774597
1535253231243152,-0.0455322,-0.225098,0.588684,0.775024
1535253231265589,-0.0454712,-0.225037,0.588257,0.77533
1535253231286647,-0.0454712,-0.225403,0.588074,0.775391
1535253231302694,-0.0449829,-0.225647,0.588257,0.775208
1535253231325249,-0.0437012,-0.22467,0.588135,0.775635
1535253231346307,-0.0423584,-0.223511,0.587769,0.776367
1535253231370393,-0.0420532,-0.223022,0.587402,0.776794
1535253231392960,-0.0422363,-0.222961,0.586853,0.777161
1535253231407972,-0.0422974,-0.222839,0.586426,0.777588
1535253231423012,-0.0419312,-0.222229,0.586121,0.777954
1535253231445419,-0.0413818,-0.221313,0.585876,0.778442
1535253231468635,-0.0413208,-0.220947,0.585449,0.77887
1535253231482676,-0.0412598,-0.220825,0.584961,0.779297
1535253231505235,-0.0408936,-0.220337,0.584412,0.779846
1535253231527788,-0.0405884,-0.220032,0.583923,0.780334
1535253231542327,-0.0402222,-0.220215,0.583252,0.780762
1535253231565388,-0.039917,-0.220337,0.582642,0.78125
1535253231587947,-0.0392456,-0.220093,0.58197,0.781799
1535253231602260,-0.0383301,-0.219666,0.581299,0.782471
1535253231625385,-0.0379028,-0.219543,0.58075,0.782959
1535253231647606,-0.0374146,-0.219543,0.5802,0.783386
1535253231670172,-0.0366211,-0.219238,0.579773,0.783813
1535253231685385,-0.0357666,-0.219177,0.579102,0.784424
1535253231707771,-0.0352173,-0.219238,0.578186,0.785034
1535253231722307,-0.0349731,-0.218933,0.577332,0.785767
1535253231745366,-0.0349121,-0.218872,0.576538,0.786377
1535253231767926,-0.0343628,-0.218628,0.575867,0.786926
1535253231782466,-0.0337524,-0.218506,0.575134,0.787537
1535253231805527,-0.0330811,-0.21814,0.574463,0.788208
1535253231828087,-0.0327148,-0.21814,0.573792,0.788696
1535253231849143,-0.0323486,-0.217957,0.573425,0.789001
1535253231865188,-0.0318604,-0.217651,0.57312,0.789368
1535253231888109,-0.0309448,-0.217468,0.572754,0.789734
1535253231908812,-0.0301514,-0.217346,0.572388,0.790039
1535253231925351,-0.0299683,-0.217834,0.571899,0.790283
1535253231947959,-0.0297852,-0.21814,0.571411,0.790527
1535253231968960,-0.02948,-0.218506,0.570923,0.790771
1535253231985505,-0.0289917,-0.218811,0.570557,0.791016
1535253232007688,-0.0285034,-0.218811,0.570129,0.791321
1535253232013120,-0.0283813,-0.218811,0.569885,0.791504
1535253232035903,-0.0283813,-0.218994,0.56958,0.791687
1535253232050677,-0.0284424,-0.219238,0.569336,0.791748
1535253232073237,-0.0283813,-0.219177,0.569092,0.791992
1535253232095798,-0.0283813,-0.219116,0.569092,0.791992
1535253232110838,-0.0283813,-0.219116,0.569092,0.791992
1535253232133401,-0.0282593,-0.21936,0.569031,0.791992
1535253232155456,-0.0280762,-0.219543,0.568909,0.791992
1535253232170497,-0.0280762,-0.219971,0.568848,0.791931
1535253232193057,-0.0281372,-0.220459,0.568787,0.79187
1535253232215616,-0.0281372,-0.220459,0.568787,0.79187
1535253232230658,-0.0283203,-0.220764,0.568665,0.79187
1535253232253216,-0.0285645,-0.220947,0.56842,0.791992
1535253232275854,-0.0288086,-0.221069,0.568359,0.791931
1535253232290845,-0.0288086,-0.22113,0.568359,0.791931
1535253232313441,-0.0288086,-0.221069,0.568359,0.791992
1535253232335969,-0.0291138,-0.22113,0.568298,0.791931
1535253232351022,-0.0292969,-0.221191,0.568481,0.791809
1535253232373545,-0.0292969,-0.221191,0.568481,0.79187
1535253232395597,-0.0292358,-0.221558,0.568359,0.791809
1535253232410636,-0.0294189,-0.221985,0.568359,0.791687
1535253232433197,-0.0294189,-0.221985,0.568359,0.791687
1535253232458765,-0.0296021,-0.222229,0.568298,0.791687
1535253232478328,-0.0296021,-0.222229,0.568237,0.791687
1535253232493401,-0.0297241,-0.222595,0.568176,0.791626
1535253232515925,-0.0297241,-0.222595,0.568176,0.791626
1535253232530963,-0.0296631,-0.222595,0.56842,0.791443
1535253232553516,-0.0296021,-0.222656,0.568665,0.791321
1535253232576118,-0.0296021,-0.222595,0.568665,0.791321
1535253232590726,-0.0296021,-0.222595,0.568665,0.791321
1535253232613218,-0.0296021,-0.222656,0.568665,0.791321
1535253232635736,-0.0296021,-0.222656,0.568665,0.79126
1535253232650783,-0.0296021,-0.222656,0.568604,0.79126
1535253232673438,-0.0292969,-0.222717,0.568604,0.791321
1535253232695898,-0.02948,-0.222717,0.568726,0.791199
1535253232710941,-0.02948,-0.222778,0.568726,0.791199
1535253232733545,-0.0294189,-0.222778,0.568726,0.791199
1535253232756064,-0.0294189,-0.222778,0.568726,0.791199
1535253232778039,-0.0296021,-0.222595,0.568848,0.791138
1535253232796085,-0.0297852,-0.222534,0.568726,0.79126
1535253232818796,-0.0298462,-0.222412,0.568665,0.791321
1535253232838189,-0.0300293,-0.222168,0.568665,0.791382
1535253232853240,-0.0302124,-0.221863,0.568726,0.791382
1535253232875891,-0.0303345,-0.22168,0.568787,0.791443
1535253232890930,-0.0301514,-0.221313,0.568848,0.791504
1535253232913391,-0.0300903,-0.221313,0.568848,0.791504
1535253232935962,-0.0302734,-0.221252,0.569031,0.791382
1535253232952000,-0.0301514,-0.22113,0.569214,0.791321
1535253232973553,-0.0299072,-0.220886,0.569275,0.791321
1535253233013157,-0.0297241,-0.220703,0.569397,0.791321
1535253233015387,-0.0297241,-0.220703,0.569397,0.791321
1535253233036720,-0.0297852,-0.220398,0.569519,0.79126
1535253233055771,-0.0296631,-0.220032,0.569641,0.791321
1535253233073817,-0.0294189,-0.219543,0.569702,0.791382
1535253233095875,-0.0291748,-0.219299,0.569702,0.791443
1535253233115930,-0.0292358,-0.219299,0.569702,0.791443
1535253233132008,-0.0292358,-0.219299,0.569702,0.791443
1535253233153543,-0.0291138,-0.218994,0.569702,0.791565
1535253233175666,-0.0291138,-0.218994,0.569702,0.791565
1535253233192142,-0.0291138,-0.218994,0.569702,0.791565
1535253233213193,-0.0291138,-0.218994,0.569702,0.791565
1535253233235753,-0.0291138,-0.21875,0.569702,0.791626
1535253233253796,-0.0291138,-0.21875,0.569702,0.791626
1535253233273349,-0.0288696,-0.218506,0.569763,0.791687
1535253233296009,-0.0288696,-0.218506,0.569763,0.791687
1535253233313458,-0.0288696,-0.218506,0.569763,0.791687
1535253233333509,-0.0286865,-0.218201,0.569702,0.791748
1535253233355567,-0.0285034,-0.217896,0.569824,0.791809
1535253233373650,-0.0285034,-0.217896,0.569824,0.791809
1535253233393206,-0.0285034,-0.217896,0.569824,0.791809
1535253233415821,-0.0285034,-0.217896,0.569824,0.791809
1535253233433811,-0.0285034,-0.217896,0.569824,0.791809
1535253233453400,-0.0285034,-0.217896,0.569824,0.791809
1535253233475918,-0.0285034,-0.217896,0.569824,0.791809
1535253233493466,-0.0282593,-0.21759,0.569824,0.79187
1535253233513518,-0.0282593,-0.21759,0.569824,0.79187
1535253233535587,-0.0282593,-0.21759,0.569824,0.79187
1535253233553626,-0.0282593,-0.21759,0.569824,0.79187
1535253233573691,-0.0280762,-0.217346,0.569824,0.791931
1535253233595745,-0.0280762,-0.217346,0.569824,0.791931
1535253233614286,-0.0280762,-0.217346,0.569824,0.791931
1535253233633458,-0.0281982,-0.217102,0.569946,0.791931
1535253233655984,-0.0280151,-0.216797,0.569946,0.791992
1535253233673946,-0.0280151,-0.216797,0.569946,0.792053
1535253233694499,-0.0280151,-0.216797,0.569946,0.791992
1535253233715572,-0.0280151,-0.216797,0.569946,0.792053
1535253233733644,-0.0280151,-0.216736,0.569946,0.792053
1535253233754674,-0.0280151,-0.216736,0.569946,0.792053
1535253233775835,-0.0278931,-0.216614,0.569946,0.792053
1535253233793902,-0.0278931,-0.216614,0.569946,0.792053
1535253233813475,-0.0279541,-0.216614,0.569946,0.792053
1535253233835899,-0.0278931,-0.216614,0.569946,0.792053
1535253233853425,-0.0278931,-0.216614,0.569946,0.792053
1535253233874984,-0.0278931,-0.216553,0.569946,0.792114
1535253233896039,-0.0278931,-0.216553,0.569946,0.792114
1535253233914087,-0.0278931,-0.216553,0.569946,0.792053
1535253233934699,-0.0278931,-0.216553,0.569946,0.792114
1535253233955705,-0.0278931,-0.216553,0.569946,0.792114
1535253233973744,-0.0278931,-0.216553,0.569946,0.792114
1535253233994800,-0.0278931,-0.216553,0.569946,0.792114
1535253234015905,-0.0278931,-0.216553,0.569946,0.792114
1535253234033579,-0.0278931,-0.216553,0.569946,0.792114
1535253234054959,-0.027832,-0.216492,0.569946,0.792114
1535253234076016,-0.027832,-0.216492,0.569946,0.792114
1535253234094077,-0.0278931,-0.216492,0.569946,0.792114
1535253234122141,-0.0278931,-0.216492,0.569946,0.792114
1535253234135731,-0.027832,-0.216492,0.569946,0.792114
1535253234169529,-0.027832,-0.216492,0.569946,0.792114
1535253234174782,-0.027832,-0.216492,0.569946,0.792114
1535253234195923,-0.027832,-0.216431,0.569946,0.792114
1535253234213379,-0.027832,-0.216431,0.569946,0.792114
1535253234236443,-0.027832,-0.216431,0.569946,0.792114
1535253234255996,-0.027832,-0.216431,0.569946,0.792114
1535253234273543,-0.027832,-0.216431,0.569946,0.792114
1535253234296101,-0.027832,-0.216431,0.569946,0.792114
1535253234315957,-0.027832,-0.21637,0.569946,0.792114
1535253234333906,-0.027832,-0.21637,0.569946,0.792114
1535253234356266,-0.027832,-0.21637,0.569946,0.792114
1535253234375867,-0.027832,-0.21637,0.569946,0.792114
1535253234393859,-0.027771,-0.21637,0.569946,0.792114
1535253234422442,-0.027771,-0.21637,0.570007,0.792114
1535253234435974,-0.027771,-0.216309,0.570007,0.792114
1535253234459540,-0.027771,-0.216309,0.570007,0.792114
1535253234476087,-0.027771,-0.216309,0.570007,0.792114
1535253234495632,-0.027771,-0.216248,0.570007,0.792175
1535253234513701,-0.027771,-0.216248,0.570007,0.792175
1535253234536243,-0.02771,-0.216248,0.570007,0.792175
1535253234555792,-0.027771,-0.216248,0.570007,0.792175
1535253234573839,-0.027771,-0.216187,0.570007,0.792175
1535253234596006,-0.027771,-0.216187,0.570007,0.792175
1535253234615951,-0.027771,-0.216187,0.570007,0.792175
1535253234633498,-0.027771,-0.216187,0.570007,0.792175
1535253234662316,-0.02771,-0.216187,0.570007,0.792175
1535253234675614,-0.02771,-0.216125,0.570007,0.792175
1535253234699739,-0.02771,-0.216125,0.570007,0.792175
1535253234722242,-0.02771,-0.216125,0.570007,0.792175
1535253234735772,-0.02771,-0.216125,0.570007,0.792175
1535253234753818,-0.02771,-0.216125,0.570007,0.792175
1535253234776378,-0.02771,-0.216064,0.570007,0.792175
1535253234795931,-0.02771,-0.216064,0.570007,0.792175
1535253234813479,-0.0276489,-0.216064,0.570007,0.792175
1535253234836081,-0.0276489,-0.216064,0.570007,0.792175
1535253234857147,-0.0276489,-0.216003,0.570007,0.792236
1535253234873710,-0.0276489,-0.216003,0.570007,0.792236
1535253234896196,-0.0276489,-0.216003,0.570007,0.792236
1535253234917255,-0.0276489,-0.216003,0.570007,0.792236
1535253234933798,-0.0276489,-0.216003,0.570007,0.792236
1535253234956356,-0.0276489,-0.216003,0.570007,0.792236
1535253234977412,-0.0276489,-0.216003,0.570007,0.792236
1535253234993526,-0.0276489,-0.216003,0.570007,0.792236
1535253235016128,-0.0276489,-0.215942,0.570007,0.792236
1535253235037079,-0.0276489,-0.215942,0.570007,0.792236
1535253235053615,-0.0276489,-0.215942,0.570007,0.792236
1535253235076256,-0.0276489,-0.215942,0.570007,0.792236
1535253235096494,-0.0276489,-0.215942,0.570007,0.792236
1535253235119075,-0.0276489,-0.215881,0.570007,0.792236
1535253235135517,-0.0276489,-0.215881,0.570007,0.792236
1535253235158076,-0.0276489,-0.215881,0.570007,0.792236
1535253235172123,-0.0276489,-0.215881,0.570007,0.792236
1535253235195175,-0.0276489,-0.215881,0.570007,0.792236
1535253235217735,-0.0276489,-0.215881,0.570007,0.792236
1535253235238902,-0.0276489,-0.215881,0.570007,0.792236
1535253235255338,-0.0275879,-0.215881,0.570007,0.792236
1535253235278066,-0.0276489,-0.215881,0.570007,0.792236
1535253235299129,-0.0276489,-0.21582,0.570007,0.792236
1535253235315170,-0.0276489,-0.21582,0.570007,0.792236
1535253235338048,-0.0275879,-0.21582,0.570007,0.792236
1535253235352363,-0.0275879,-0.21582,0.570007,0.792236
1535253235375566,-0.0275879,-0.21582,0.570007,0.792236
1535253235397688,-0.0275879,-0.21582,0.570007,0.792236
1535253235412169,-0.0276489,-0.21582,0.570007,0.792236
1535253235435507,-0.0275879,-0.21582,0.570007,0.792236
1535253235457794,-0.0275879,-0.21582,0.570007,0.792236
1535253235472347,-0.0275879,-0.21582,0.570007,0.792236
1535253235495391,-0.0275879,-0.21582,0.570007,0.792236
1535253235517949,-0.0275879,-0.21582,0.570007,0.792236
1535253235532486,-0.0275879,-0.215759,0.570007,0.792236
1535253235555547,-0.0275879,-0.215759,0.570007,0.792236
1535253235578109,-0.0275879,-0.215759,0.570007,0.792236
1535253235592146,-0.0275879,-0.215759,0.570007,0.792236
1535253235615205,-0.0275879,-0.215759,0.570007,0.792236
1535253235637765,-0.0275879,-0.215759,0.570068,0.792236
1535253235658823,-0.0275879,-0.215759,0.570007,0.792297
1535253235675377,-0.0275879,-0.215698,0.570068,0.792297
1535253235697925,-0.0275879,-0.215698,0.570007,0.792297
1535253235720487,-0.0275879,-0.215698,0.570068,0.792297
1535253235741663,-0.0275269,-0.215698,0.570007,0.792297
1535253235758152,-0.0275879,-0.215698,0.570068,0.792297
1535253235779143,-0.0275879,-0.215637,0.570068,0.792297
1535253235795187,-0.0275269,-0.215637,0.570068,0.792297
1535253235817896,-0.0275269,-0.215637,0.570068,0.792297
1535253235838800,-0.0275879,-0.215637,0.570068,0.792297
1535253235855342,-0.0275269,-0.215637,0.570068,0.792297
1535253235877903,-0.0275879,-0.215576,0.570068,0.792297
1535253235898959,-0.0275879,-0.215576,0.570068,0.792297
1535253235915503,-0.0275879,-0.215576,0.570068,0.792297
1535253235938064,-0.0275879,-0.215576,0.570068,0.792297
1535253235959120,-0.0275879,-0.215576,0.570068,0.792297
1535253235975667,-0.0275879,-0.215576,0.570068,0.792297
1535253235997726,-0.0275879,-0.215576,0.570068,0.792297
1535253236019285,-0.0275879,-0.215515,0.570068,0.792297
1535253236035324,-0.0275269,-0.215515,0.570068,0.792297
1535253236057885,-0.0275879,-0.215515,0.570068,0.792297
1535253236086464,-0.0275879,-0.215515,0.570068,0.792297
1535253236095483,-0.0275879,-0.215515,0.570068,0.792297
1535253236124058,-0.0275269,-0.215515,0.570068,0.792297
1535253236147620,-0.0275269,-0.215515,0.570068,0.792297
1535253236155140,-0.0275879,-0.215454,0.570068,0.792297
1535253236177776,-0.0275269,-0.215454,0.570068,0.792297
1535253236200358,-0.0275269,-0.215454,0.570068,0.792297
1535253236214874,-0.0275269,-0.215393,0.570068,0.792297
1535253236237865,-0.0275269,-0.215393,0.570068,0.792297
1535253236260423,-0.0275269,-0.215393,0.570068,0.792297
1535253236274458,-0.0275269,-0.215454,0.570068,0.792297
1535253236298021,-0.0275269,-0.215454,0.570068,0.792297
1535253236320079,-0.0275879,-0.215393,0.570068,0.792297
1535253236334762,-0.0275879,-0.215393,0.570068,0.792297
1535253236357719,-0.0275879,-0.215332,0.570068,0.792358
1535253236380343,-0.0275269,-0.215332,0.570068,0.792358
1535253236394790,-0.0275269,-0.215332,0.570068,0.792358
1535253236417843,-0.0275269,-0.215332,0.570068,0.792358
1535253236440414,-0.0275269,-0.215271,0.570129,0.792358
1535253236454940,-0.0275269,-0.215271,0.570129,0.792358
1535253236478116,-0.0275269,-0.215271,0.570068,0.792358
1535253236500060,-0.0272827,-0.215088,0.570129,0.792358
1535253236514597,-0.0272217,-0.215088,0.570129,0.792358
1535253236537659,-0.0272217,-0.215027,0.570129,0.792358
1535253236560303,-0.0272827,-0.215027,0.57019,0.792358
1535253236574767,-0.0272217,-0.215027,0.570129,0.792358
1535253236597819,-0.0272217,-0.215027,0.570129,0.792358
1535253236620882,-0.0272217,-0.215027,0.570129,0.792419
1535253236641539,-0.0272217,-0.214966,0.570129,0.792419
1535253236658084,-0.0272217,-0.214966,0.57019,0.792419
1535253236680544,-0.0272217,-0.214966,0.57019,0.792419
1535253236701612,-0.0272217,-0.214966,0.57019,0.792419
1535253236717636,-0.0272217,-0.214966,0.57019,0.792419
1535253236740198,-0.0272217,-0.214966,0.57019,0.792419
1535253236761357,-0.0272217,-0.214905,0.57019,0.792419
1535253236777808,-0.0272217,-0.214905,0.57019,0.792419
1535253236800363,-0.0272217,-0.214905,0.57019,0.792419
1535253236821423,-0.0272217,-0.214905,0.57019,0.792419
1535253236837960,-0.0272217,-0.214905,0.57019,0.792419
1535253236860579,-0.0272217,-0.214905,0.57019,0.792419
1535253236881636,-0.0272217,-0.214844,0.57019,0.792419
1535253236897678,-0.0272217,-0.214905,0.57019,0.792419
1535253236920238,-0.0272217,-0.214844,0.57019,0.792419
1535253236941300,-0.0272217,-0.214844,0.57019,0.792419
1535253236957898,-0.0272217,-0.214844,0.57019,0.792419
1535253236980398,-0.0272217,-0.214783,0.57019,0.792419
1535253237001462,-0.0272217,-0.214783,0.57019,0.792419
1535253237018001,-0.0272217,-0.214783,0.57019,0.792419
1535253237040558,-0.0272217,-0.214783,0.57019,0.792419
1535253237063119,-0.0272217,-0.214783,0.57019,0.792419
1535253237078160,-0.0272217,-0.214722,0.57019,0.792419
1535253237100216,-0.0271606,-0.214722,0.57019,0.792419
1535253237122777,-0.0271606,-0.214722,0.57019,0.792419
1535253237137816,-0.0271606,-0.214661,0.57019,0.79248
1535253237160746,-0.0271606,-0.214661,0.57019,0.79248
1535253237182934,-0.0270996,-0.214661,0.57019,0.79248
1535253237196973,-0.0270996,-0.2146,0.57019,0.79248
1535253237221040,-0.0270996,-0.2146,0.57019,0.79248
1535253237243098,-0.0270996,-0.2146,0.57019,0.79248
1535253237257132,-0.0270996,-0.2146,0.57019,0.79248
1535253237280195,-0.0270386,-0.2146,0.57019,0.79248
1535253237302756,-0.0270996,-0.214539,0.57019,0.79248
1535253237317293,-0.0270386,-0.214539,0.57019,0.79248
1535253237340355,-0.0270386,-0.214539,0.57019,0.79248
1535253237362915,-0.0270386,-0.214478,0.57019,0.79248
1535253237377048,-0.0270386,-0.214478,0.57019,0.79248
1535253237400514,-0.0270386,-0.214478,0.57019,0.79248
1535253237423108,-0.0270386,-0.214478,0.57019,0.79248
1535253237437122,-0.0270386,-0.214478,0.57019,0.79248
1535253237460180,-0.0270386,-0.214417,0.57019,0.79248
1535253237482733,-0.0270386,-0.214417,0.57019,0.792542
1535253237497775,-0.0270386,-0.214417,0.57019,0.792542
1535253237520336,-0.0269775,-0.214417,0.57019,0.792542
1535253237542904,-0.0269775,-0.214417,0.57019,0.792542
1535253237563948,-0.0269775,-0.214417,0.57019,0.792542
1535253237580494,-0.0269775,-0.214355,0.57019,0.792542
1535253237602705,-0.0269775,-0.214355,0.57019,0.792542
1535253237624108,-0.0269775,-0.214355,0.57019,0.792542
1535253237640150,-0.0269775,-0.214355,0.57019,0.792542
1535253237662716,-0.0269775,-0.214355,0.57019,0.792542
1535253237683843,-0.0269775,-0.214294,0.57019,0.792542
1535253237700311,-0.0269775,-0.214294,0.570251,0.792542
1535253237730400,-0.0269775,-0.214294,0.570251,0.792542
1535253237743930,-0.0269775,-0.214294,0.570251,0.792542
1535253237760493,-0.0271606,-0.214233,0.570129,0.792603
1535253237783030,-0.0271606,-0.214233,0.570129,0.792664
1535253237804087,-0.0271606,-0.214172,0.570129,0.792664
1535253237820130,-0.0270996,-0.214172,0.570129,0.792664
1535253237842699,-0.0270996,-0.214172,0.570129,0.792664
1535253237864251,-0.0270996,-0.214172,0.570129,0.792664
1535253237880294,-0.0270996,-0.214111,0.570129,0.792664
1535253237902972,-0.0270996,-0.214111,0.570129,0.792664
1535253237924027,-0.0270996,-0.214111,0.570129,0.792664
1535253237940452,-0.0270996,-0.214111,0.570129,0.792664
1535253237963012,-0.0270996,-0.214111,0.570129,0.792664
1535253237984309,-0.0270996,-0.214111,0.570129,0.792664
1535253238000145,-0.0270386,-0.214111,0.570129,0.792664
1535253238029188,-0.0270996,-0.214111,0.570129,0.792664
1535253238051250,-0.0270996,-0.214172,0.570129,0.792664
1535253238060279,-0.0270996,-0.214111,0.570129,0.792664
1535253238082830,-0.0270386,-0.214111,0.570129,0.792664
1535253238105399,-0.0270386,-0.214111,0.570129,0.792664
1535253238126551,-0.0270996,-0.214111,0.570129,0.792664
1535253238142989,-0.0270996,-0.214111,0.570129,0.792664
1535253238165628,-0.0270996,-0.214111,0.570129,0.792664
1535253238179586,-0.0270996,-0.214111,0.570129,0.792664
1535253238202946,-0.0270386,-0.214233,0.57019,0.792603
1535253238225214,-0.0270386,-0.214233,0.57019,0.792603
1535253238239749,-0.0270386,-0.214294,0.57019,0.792542
1535253238262808,-0.0270386,-0.214294,0.57019,0.792542
1535253238285370,-0.0270386,-0.214294,0.57019,0.792542
1535253238308497,-0.0270386,-0.214233,0.57019,0.792603
1535253238329089,-0.0270386,-0.214233,0.57019,0.792603
1535253238345538,-0.0270386,-0.214233,0.57019,0.792603
1535253238359577,-0.0270386,-0.214233,0.57019,0.792603
1535253238383128,-0.0270386,-0.214233,0.57019,0.792542
1535253238405187,-0.0270386,-0.214233,0.57019,0.792603
1535253238419799,-0.0270386,-0.214233,0.57019,0.792603
1535253238442987,-0.0270386,-0.214233,0.57019,0.792603
1535253238465349,-0.0270386,-0.214233,0.57019,0.792603
1535253238486504,-0.0270386,-0.214233,0.57019,0.792603
1535253238502955,-0.0270386,-0.214233,0.57019,0.792603
1535253238525507,-0.0270386,-0.214233,0.57019,0.792603
1535253238546624,-0.0270386,-0.214233,0.57019,0.792603
1535253238563109,-0.0270386,-0.214233,0.57019,0.792603
1535253238585167,-0.0269775,-0.214233,0.57019,0.792603
1535253238606273,-0.0269775,-0.214233,0.57019,0.792603
1535253238622766,-0.0269775,-0.214233,0.57019,0.792603
1535253238645325,-0.0269775,-0.214233,0.57019,0.792603
1535253238666385,-0.0269775,-0.214233,0.57019,0.792603
1535253238682931,-0.0269775,-0.214233,0.57019,0.792603
1535253238705486,-0.0270386,-0.214233,0.57019,0.792603
1535253238726550,-0.0270386,-0.214233,0.57019,0.792603
1535253238743103,-0.0270386,-0.214233,0.57019,0.792603
1535253238765657,-0.0270386,-0.214172,0.57019,0.792603
1535253238786207,-0.0270386,-0.214233,0.57019,0.792603
1535253238802790,-0.0270386,-0.214233,0.57019,0.792603
1535253238825812,-0.0270386,-0.214233,0.57019,0.792603
1535253238863407,-0.0270386,-0.214172,0.57019,0.792603
1535253238866004,-0.0270386,-0.214172,0.57019,0.792603
1535253238885968,-0.0270386,-0.214172,0.57019,0.792603
1535253238906532,-0.0270386,-0.214172,0.57019,0.792603
1535253238922570,-0.0270386,-0.214172,0.57019,0.792603
1535253238945646,-0.0270386,-0.214172,0.57019,0.792603
1535253238968304,-0.0270386,-0.214172,0.57019,0.792603
1535253238983245,-0.0270386,-0.214172,0.57019,0.792603
1535253239005301,-0.0270386,-0.214172,0.57019,0.792603
1535253239027862,-0.0270386,-0.214111,0.57019,0.792603
1535253239042901,-0.0270386,-0.214111,0.57019,0.792603
1535253239065460,-0.0270386,-0.214111,0.57019,0.792603
1535253239088020,-0.0270386,-0.214111,0.57019,0.792603
1535253239102057,-0.0270386,-0.214111,0.57019,0.792603
1535253239125118,-0.0270386,-0.214111,0.57019,0.792603
1535253239147678,-0.0270386,-0.214111,0.57019,0.792603
1535253239162220,-0.0270386,-0.214111,0.57019,0.792603
1535253239185353,-0.0270386,-0.214111,0.570251,0.792603
1535253239207840,-0.0270386,-0.214111,0.570251,0.792603
1535253239222458,-0.0270386,-0.21405,0.57019,0.792603
1535253239245444,-0.0270386,-0.21405,0.57019,0.792603
1535253239267998,-0.0270386,-0.21405,0.570251,0.792603
1535253239282036,-0.0270386,-0.21405,0.570251,0.792603
1535253239305099,-0.0269775,-0.21405,0.570251,0.792603
1535253239328029,-0.0270386,-0.21405,0.570251,0.792603
1535253239342199,-0.0270386,-0.213989,0.570251,0.792603
1535253239365533,-0.0270386,-0.213989,0.570251,0.792603
1535253239387589,-0.0269775,-0.213989,0.570251,0.792603
1535253239408795,-0.0270386,-0.213989,0.570251,0.792603
1535253239425340,-0.0270386,-0.213989,0.570251,0.792603
1535253239447898,-0.0270386,-0.213989,0.570251,0.792603
1535253239468453,-0.0270386,-0.213928,0.570251,0.792603
1535253239485501,-0.0270386,-0.213928,0.570251,0.792603
1535253239508060,-0.0270386,-0.213928,0.570251,0.792603
1535253239529124,-0.0270386,-0.213928,0.570251,0.792603
1535253239545163,-0.0270386,-0.213928,0.570251,0.792603
1535253239568220,-0.0270386,-0.213867,0.570251,0.792664
1535253239589289,-0.0270386,-0.213867,0.570251,0.792664
1535253239605329,-0.0270386,-0.213867,0.570251,0.792664
1535253239628005,-0.0270386,-0.213806,0.570251,0.792664
1535253239649058,-0.0270386,-0.213806,0.570251,0.792664
1535253239671626,-0.0270386,-0.213806,0.570251,0.792664
1535253239687663,-0.0270386,-0.213806,0.570251,0.792664
1535253239708768,-0.0270386,-0.213806,0.570251,0.792664
1535253239725402,-0.0270386,-0.213806,0.570251,0.792664
1535253239747918,-0.0270386,-0.213806,0.570251,0.792664
1535253239768883,-0.0270386,-0.213806,0.570251,0.792664
1535253239785422,-0.0270386,-0.213806,0.570251,0.792664
1535253239807986,-0.0270386,-0.213806,0.570251,0.792664
1535253239829104,-0.0270386,-0.213745,0.570251,0.792664
1535253239845584,-0.0269775,-0.213745,0.570251,0.792664
1535253239867641,-0.0270386,-0.213745,0.570251,0.792664
1535253239890200,-0.0270386,-0.213745,0.570251,0.792664
1535253239905241,-0.0270386,-0.213745,0.570251,0.792664
1535253239927806,-0.0270386,-0.213745,0.570251,0.792664
1535253239950865,-0.0269775,-0.213684,0.570251,0.792664
1535253239965404,-0.0269775,-0.213684,0.570251,0.792664
1535253239993990,-0.0270386,-0.213684,0.570251,0.792664
1535253240010522,-0.0270386,-0.213684,0.570251,0.792664
1535253240024558,-0.0270386,-0.213684,0.570251,0.792664
1535253240047624,-0.0269775,-0.213623,0.570251,0.792664
1535253240070180,-0.0269775,-0.213623,0.570313,0.792664
1535253240085022,-0.0269775,-0.213623,0.570313,0.792664
1535253240107868,-0.0269775,-0.213623,0.570313,0.792664
1535253240130341,-0.0269775,-0.213623,0.570313,0.792664
1535253240144878,-0.0269775,-0.213562,0.570313,0.792664
1535253240167939,-0.0269775,-0.213562,0.570313,0.792664
1535253240190498,-0.0269775,-0.213562,0.570313,0.792664
1535253240204537,-0.0269775,-0.213562,0.570313,0.792664
1535253240227605,-0.0269775,-0.213562,0.570313,0.792664
1535253240250661,-0.0269775,-0.213562,0.570313,0.792664
1535253240271720,-0.0270386,-0.213562,0.570313,0.792664
1535253240287758,-0.0270386,-0.213501,0.570313,0.792664
1535253240310320,-0.0270386,-0.213501,0.570313,0.792664
1535253240324857,-0.0270386,-0.213501,0.570313,0.792664
1535253240347919,-0.0271606,-0.213684,0.570251,0.792664
1535253240370478,-0.0270996,-0.213684,0.570251,0.792664
1535253240391911,-0.0270996,-0.213684,0.570251,0.792664
1535253240408082,-0.0270996,-0.213684,0.570313,0.792664
1535253240430640,-0.0271606,-0.213684,0.570313,0.792664
1535253240451707,-0.0271606,-0.213684,0.570313,0.792664
1535253240468240,-0.0271606,-0.213623,0.570313,0.792664
1535253240490297,-0.0271606,-0.213623,0.570313,0.792664
1535253240511353,-0.0271606,-0.213623,0.570313,0.792664
1535253240528398,-0.0271606,-0.213623,0.570313,0.792664
1535253240550457,-0.0271606,-0.213623,0.570313,0.792664
1535253240571193,-0.0271606,-0.213623,0.570313,0.792664
1535253240587737,-0.0272217,-0.213623,0.570313,0.792664
1535253240610298,-0.0271606,-0.213623,0.570313,0.792664
1535253240631350,-0.0271606,-0.213684,0.570313,0.792664
1535253240647899,-0.0271606,-0.213623,0.570313,0.792664
1535253240670456,-0.0271606,-0.213623,0.570313,0.792664
1535253240691564,-0.0271606,-0.213623,0.570313,0.792664
1535253240707555,-0.0271606,-0.213623,0.570313,0.792664
1535253240730115,-0.0272217,-0.213623,0.570313,0.792664
1535253240751171,-0.0272217,-0.213623,0.570313,0.792664
1535253240767946,-0.0271606,-0.213623,0.570313,0.792664
1535253240790567,-0.0271606,-0.213623,0.570313,0.792664
1535253240811402,-0.0271606,-0.213623,0.570313,0.792664
1535253240827945,-0.0271606,-0.213623,0.570313,0.792664
1535253240850448,-0.0271606,-0.213623,0.570313,0.792664
1535253240872996,-0.0271606,-0.213623,0.570313,0.792664
1535253240888037,-0.0271606,-0.213623,0.570313,0.792664
1535253240910103,-0.0271606,-0.213623,0.570313,0.792664
1535253240932655,-0.0271606,-0.213684,0.570313,0.792664
1535253240947276,-0.0271606,-0.213684,0.570313,0.792664
1535253240970254,-0.0271606,-0.213623,0.570313,0.792664
1535253240992821,-0.0271606,-0.213623,0.570313,0.792664
1535253241007353,-0.0271606,-0.213623,0.570313,0.792664
1535253241030417,-0.0271606,-0.213684,0.570313,0.792664
1535253241052670,-0.0271606,-0.213684,0.570313,0.792664
1535253241067011,-0.0271606,-0.213684,0.570313,0.792664
1535253241090573,-0.0271606,-0.213684,0.570313,0.792664
1535253241113140,-0.0271606,-0.213684,0.570313,0.792664
1535253241127174,-0.0271606,-0.213623,0.570313,0.792664
1535253241150252,-0.0271606,-0.213684,0.570313,0.792664
1535253241172922,-0.0271606,-0.213623,0.570313,0.792664
1535253241187359,-0.0271606,-0.213684,0.570313,0.792664
1535253241210411,-0.0271606,-0.213623,0.570313,0.792664
1535253241232972,-0.0271606,-0.213623,0.570313,0.792664
1535253241247015,-0.0271606,-0.213623,0.570313,0.792664
1535253241270338,-0.0272217,-0.213623,0.570313,0.792664
1535253241292639,-0.0272217,-0.213623,0.570313,0.792664
1535253241307176,-0.0272217,-0.213684,0.570313,0.792664
1535253241337750,-0.0272217,-0.213684,0.570313,0.792664
1535253241358812,-0.0272217,-0.213623,0.570313,0.792664
1535253241373847,-0.0272217,-0.213623,0.570313,0.792664
1535253241390544,-0.0272217,-0.213623,0.570313,0.792664
1535253241413058,-0.0272217,-0.213623,0.570313,0.792664
1535253241434130,-0.0272217,-0.213623,0.570313,0.792664
1535253241450574,-0.0272217,-0.213623,0.570313,0.792664
1535253241472620,-0.0272217,-0.213623,0.570313,0.792664
1535253241478245,-0.0272217,-0.213623,0.570313,0.792664
1535253241500829,-0.0272217,-0.213623,0.570313,0.792664
1535253241515835,-0.0272217,-0.213623,0.570313,0.792664
1535253241538292,-0.0272217,-0.213623,0.570313,0.792664
1535253241560847,-0.0271606,-0.213623,0.570313,0.792664
1535253241575900,-0.0272217,-0.213623,0.570313,0.792664
1535253241598511,-0.0272217,-0.213623,0.570313,0.792664
1535253241629528,-0.0272217,-0.213623,0.570313,0.792664
1535253241636170,-0.0272217,-0.213623,0.570313,0.792664
1535253241661205,-0.0272217,-0.213623,0.570313,0.792664
1535253241680668,-0.0271606,-0.213623,0.570313,0.792664
1535253241695748,-0.0272217,-0.213623,0.570313,0.792664
1535253241719768,-0.0272217,-0.213623,0.570313,0.792664
1535253241740833,-0.0272217,-0.213623,0.570313,0.792664
1535253241755869,-0.0272217,-0.213623,0.570313,0.792664
1535253241778445,-0.0272217,-0.213623,0.570313,0.792664
1535253241800985,-0.0272217,-0.213623,0.570313,0.792664
1535253241815581,-0.0272217,-0.213562,0.570313,0.792664
1535253241838586,-0.0272217,-0.213562,0.570313,0.792664
1535253241860693,-0.0272217,-0.213562,0.570313,0.792664
1535253241875808,-0.0271606,-0.213562,0.570313,0.792664
1535253241898566,-0.0272217,-0.213562,0.570313,0.792664
1535253241920925,-0.0272217,-0.213562,0.570313,0.792664
1535253241938472,-0.0272217,-0.213562,0.570313,0.792664
1535253241958528,-0.0272217,-0.213562,0.570313,0.792664
1535253241981082,-0.0272217,-0.213562,0.570313,0.792664
1535253241995630,-0.0272217,-0.213501,0.570313,0.792664
1535253242018177,-0.0272217,-0.213501,0.570313,0.792664
1535253242040737,-0.0272217,-0.213501,0.570313,0.792664
1535253242055777,-0.0272217,-0.213501,0.570313,0.792664
1535253242078335,-0.0272217,-0.213501,0.570313,0.792664
1535253242100897,-0.0272217,-0.213501,0.570313,0.792664
1535253242115433,-0.0272217,-0.213501,0.570313,0.792664
1535253242138272,-0.0271606,-0.21344,0.570313,0.792664
1535253242160557,-0.0271606,-0.21344,0.570313,0.792664
1535253242175760,-0.0271606,-0.21344,0.570313,0.792725
1535253242198390,-0.0271606,-0.21344,0.570313,0.792664
1535253242228743,-0.0271606,-0.21344,0.570313,0.792725
1535253242237260,-0.0271606,-0.21344,0.570313,0.792664
1535253242258315,-0.0272217,-0.21344,0.570313,0.792664
1535253242280893,-0.0272217,-0.21344,0.570313,0.792725
1535253242295933,-0.0272217,-0.213379,0.570313,0.792725
1535253242318494,-0.0272217,-0.213379,0.570313,0.792725
1535253242340560,-0.0272217,-0.213379,0.570313,0.792725
1535253242355645,-0.0271606,-0.213379,0.570313,0.792725
1535253242378204,-0.0272217,-0.213379,0.570313,0.792725
1535253242400829,-0.0272217,-0.213379,0.570313,0.792725
1535253242417258,-0.0272217,-0.213379,0.570313,0.792725
1535253242438381,-0.0272217,-0.213379,0.570313,0.792725
1535253242460900,-0.0271606,-0.213318,0.570374,0.792725
1535253242477418,-0.0271606,-0.213318,0.570374,0.792725
1535253242505494,-0.0271606,-0.213257,0.570374,0.792725
1535253242529063,-0.0271606,-0.213257,0.570374,0.792725
1535253242537077,-0.0271606,-0.213257,0.570374,0.792725
1535253242558189,-0.0271606,-0.213196,0.570374,0.792725
1535253242580847,-0.0271606,-0.213196,0.570374,0.792725
1535253242597336,-0.0271606,-0.213196,0.570374,0.792725
1535253242618349,-0.0271606,-0.213196,0.570374,0.792725
1535253242640906,-0.0271606,-0.213196,0.570374,0.792725
1535253242656948,-0.0271606,-0.213196,0.570374,0.792725
1535253242678506,-0.0271606,-0.213196,0.570374,0.792725
1535253242701073,-0.0271606,-0.213196,0.570374,0.792725
1535253242723218,-0.0271606,-0.213135,0.570374,0.792725
1535253242738230,-0.0271606,-0.213135,0.570374,0.792725
1535253242760823,-0.0271606,-0.213074,0.570374,0.792725
1535253242778807,-0.0271606,-0.213074,0.570374,0.792725
1535253242798396,-0.0271606,-0.213074,0.570374,0.792786
1535253242820889,-0.0271606,-0.213074,0.570374,0.792786
1535253242838600,-0.0271606,-0.213074,0.570374,0.792786
1535253242858486,-0.0271606,-0.213074,0.570374,0.792786
1535253242880544,-0.0270996,-0.213074,0.570374,0.792786
1535253242898658,-0.0271606,-0.213074,0.570374,0.792786
1535253242918147,-0.0271606,-0.213013,0.570374,0.792786
1535253242940705,-0.0270996,-0.213013,0.570374,0.792786
1535253242958751,-0.0270996,-0.213074,0.570374,0.792786
1535253242978416,-0.0270996,-0.213013,0.570374,0.792786
1535253243002382,-0.0270996,-0.213013,0.570374,0.792786
1535253243018913,-0.0270996,-0.213013,0.570374,0.792786
1535253243038465,-0.0270996,-0.213013,0.570374,0.792786
1535253243063619,-0.0270996,-0.213013,0.570374,0.792786
1535253243078571,-0.0270386,-0.213013,0.570374,0.792786
1535253243098132,-0.0270386,-0.212952,0.570374,0.792786
1535253243120727,-0.0270996,-0.212952,0.570374,0.792786
1535253243138731,-0.0270996,-0.212952,0.570374,0.792786
1535253243158289,-0.0270386,-0.212952,0.570374,0.792786
1535253243181024,-0.0270386,-0.212891,0.570374,0.792786
1535253243198893,-0.0270386,-0.212891,0.570374,0.792786
1535253243218451,-0.0270996,-0.212952,0.570374,0.792786
1535253243241003,-0.0270996,-0.212952,0.570374,0.792786
1535253243258613,-0.0270386,-0.212891,0.570374,0.792786
1535253243278237,-0.0270386,-0.212891,0.570374,0.792786
1535253243300669,-0.0270996,-0.21283,0.570374,0.792786
1535253243318827,-0.0270386,-0.21283,0.570374,0.792786
1535253243339782,-0.0270386,-0.212891,0.570374,0.792786
1535253243360918,-0.0270386,-0.212891,0.570374,0.792786
1535253243378369,-0.0269165,-0.212524,0.570435,0.792847
1535253243399926,-0.0270996,-0.212769,0.570374,0.792847
1535253243420983,-0.0271606,-0.212708,0.570374,0.792847
1535253243438531,-0.0272217,-0.212891,0.570251,0.792908
1535253243459598,-0.0269775,-0.212708,0.570313,0.792908
1535253243480641,-0.0274048,-0.213074,0.570251,0.792847
1535253243498689,-0.0274658,-0.212952,0.570313,0.792847
1535253243521250,-0.0276489,-0.213257,0.570313,0.792725
1535253243540800,-0.0272827,-0.212402,0.570435,0.792908
1535253243558848,-0.0274658,-0.212708,0.570313,0.792908
1535253243579403,-0.0270386,-0.212646,0.57019,0.79303
1535253243600493,-0.0270386,-0.213135,0.569885,0.793091
1535253243618545,-0.0270386,-0.213196,0.569885,0.793091
1535253243639604,-0.0270386,-0.213135,0.569885,0.793091
1535253243660741,-0.0270996,-0.213196,0.569885,0.793091
1535253243678668,-0.0270996,-0.213074,0.569946,0.793091
1535253243708748,-0.0271606,-0.213318,0.569824,0.793091
1535253243720900,-0.0269165,-0.21344,0.569702,0.793152
1535253243738827,-0.0269165,-0.21344,0.569702,0.793152
1535253243761387,-0.0269165,-0.213684,0.569641,0.793152
1535253243780938,-0.0269165,-0.213745,0.569641,0.793152
1535253243798539,-0.0269775,-0.213684,0.569641,0.793152
1535253243821052,-0.0269165,-0.213684,0.569641,0.793152
1535253243840601,-0.0269165,-0.213684,0.569641,0.793152
1535253243859148,-0.0269165,-0.213684,0.569641,0.793152
1535253243881709,-0.0269165,-0.213684,0.569641,0.793152
1535253243900763,-0.0270996,-0.213989,0.569641,0.793091
1535253243918812,-0.0270996,-0.213928,0.569641,0.793091
1535253243940865,-0.0270996,-0.213928,0.569641,0.793091
1535253243960918,-0.0270996,-0.213928,0.569641,0.793091
1535253243978517,-0.0272217,-0.214111,0.56958,0.79303
1535253244001027,-0.0272217,-0.214111,0.56958,0.79303
1535253244020675,-0.0274048,-0.214355,0.569519,0.79303
1535253244038627,-0.0274048,-0.214355,0.569519,0.79303
1535253244061186,-0.0274048,-0.214294,0.569519,0.79303
1535253244080783,-0.0274048,-0.214294,0.569519,0.79303
1535253244098787,-0.0274048,-0.214294,0.569519,0.79303
1535253244121347,-0.0274048,-0.214294,0.569519,0.79303
1535253244140898,-0.0274048,-0.214294,0.56958,0.79303
1535253244158946,-0.0274048,-0.214294,0.56958,0.79303
1535253244181004,-0.0274658,-0.214233,0.56958,0.79303
1535253244200623,-0.0274658,-0.214294,0.56958,0.79303
1535253244218609,-0.0274658,-0.214294,0.56958,0.79303
1535253244245678,-0.0274658,-0.214294,0.56958,0.79303
1535253244262223,-0.0274658,-0.214233,0.56958,0.79303
1535253244278765,-0.0274658,-0.214233,0.56958,0.79303
1535253244301343,-0.0274658,-0.214233,0.56958,0.79303
1535253244322380,-0.0274048,-0.214233,0.56958,0.79303
1535253244338427,-0.0274048,-0.214233,0.56958,0.79303
1535253244361073,-0.0276489,-0.214355,0.56958,0.792969
1535253244382038,-0.0276489,-0.214355,0.56958,0.792969
1535253244398582,-0.0276489,-0.214355,0.56958,0.792969
1535253244421149,-0.0276489,-0.214294,0.56958,0.792969
1535253244442199,-0.0276489,-0.214294,0.56958,0.792969
1535253244458751,-0.0276489,-0.214294,0.56958,0.792969
1535253244481348,-0.0276489,-0.214294,0.56958,0.792969
1535253244502361,-0.0276489,-0.214294,0.56958,0.792969
1535253244517432,-0.0276489,-0.214294,0.56958,0.792969
1535253244540459,-0.0276489,-0.214294,0.56958,0.792969
1535253244561557,-0.0276489,-0.214233,0.56958,0.792969
1535253244584076,-0.0276489,-0.214233,0.56958,0.792969
1535253244600122,-0.0276489,-0.214233,0.56958,0.792969
1535253244622688,-0.0276489,-0.214233,0.56958,0.792969
1535253244643834,-0.0276489,-0.214233,0.569641,0.792969
1535253244667808,-0.0276489,-0.214233,0.569641,0.792969
1535253244690359,-0.0276489,-0.214233,0.569641,0.792969
1535253244703898,-0.0276489,-0.214233,0.56958,0.792969
1535253244720451,-0.02771,-0.214233,0.569641,0.792969
1535253244743000,-0.0276489,-0.214233,0.569641,0.792969
1535253244757037,-0.0276489,-0.214172,0.569641,0.792969
1535253244780601,-0.0276489,-0.214172,0.569641,0.792969
1535253244802860,-0.0276489,-0.214172,0.569641,0.792969
1535253244817398,-0.0276489,-0.214172,0.569641,0.792969
1535253244840457,-0.0276489,-0.214172,0.569641,0.792969
1535253244863524,-0.0276489,-0.214111,0.569641,0.792969
1535253244877058,-0.0276489,-0.214111,0.569641,0.792969
1535253244900620,-0.0276489,-0.214111,0.569641,0.792969
1535253244923179,-0.0276489,-0.214111,0.569641,0.79303
1535253244937231,-0.0276489,-0.214111,0.569641,0.792969
1535253244960280,-0.0276489,-0.21405,0.569641,0.79303
1535253244982838,-0.0276489,-0.21405,0.569641,0.79303
1535253244997376,-0.0276489,-0.21405,0.569641,0.79303
1535253245020440,-0.0276489,-0.21405,0.569641,0.79303
1535253245042997,-0.0276489,-0.213989,0.569641,0.79303
1535253245057034,-0.0276489,-0.213989,0.569641,0.79303
1535253245080544,-0.0276489,-0.213989,0.569641,0.79303
1535253245102662,-0.02771,-0.213989,0.569641,0.79303
1535253245124217,-0.02771,-0.213989,0.569641,0.79303
1535253245140386,-0.02771,-0.213928,0.569641,0.79303
1535253245162819,-0.02771,-0.213928,0.569641,0.79303
1535253245183989,-0.02771,-0.213989,0.569641,0.79303
1535253245200416,-0.02771,-0.213928,0.569641,0.79303
1535253245222978,-0.02771,-0.213928,0.569641,0.79303
1535253245244073,-0.02771,-0.213928,0.569641,0.79303
1535253245266600,-0.02771,-0.213867,0.569702,0.79303
1535253245282642,-0.02771,-0.213867,0.569702,0.79303
1535253245305205,-0.02771,-0.213867,0.569702,0.79303
1535253245320378,-0.02771,-0.213806,0.569702,0.79303
1535253245342796,-0.02771,-0.213806,0.569702,0.79303
1535253245363851,-0.02771,-0.213806,0.569702,0.79303
1535253245380396,-0.02771,-0.213806,0.569702,0.79303
1535253245402956,-0.02771,-0.213806,0.569702,0.79303
1535253245424018,-0.02771,-0.213745,0.569702,0.79303
1535253245440556,-0.02771,-0.213745,0.569702,0.79303
1535253245463116,-0.02771,-0.213745,0.569702,0.79303
1535253245484180,-0.02771,-0.213745,0.569702,0.79303
1535253245500229,-0.02771,-0.213745,0.569702,0.79303
1535253245523279,-0.02771,-0.213684,0.569702,0.79303
1535253245543839,-0.02771,-0.213684,0.569702,0.79303
1535253245559873,-0.02771,-0.213684,0.569702,0.793091
1535253245582937,-0.02771,-0.213623,0.569702,0.793091
1535253245605511,-0.02771,-0.213623,0.569702,0.793091
1535253245620536,-0.02771,-0.213623,0.569702,0.793091
1535253245643178,-0.02771,-0.213623,0.569702,0.793091
1535253245665239,-0.02771,-0.213623,0.569702,0.793091
1535253245680277,-0.02771,-0.213562,0.569702,0.793091
1535253245702839,-0.02771,-0.213562,0.569702,0.793091
1535253245725475,-0.02771,-0.213562,0.569702,0.793091
1535253245739939,-0.02771,-0.213562,0.569702,0.793091
1535253245763079,-0.02771,-0.213501,0.569702,0.793091
1535253245791640,-0.02771,-0.213501,0.569702,0.793091
1535253245799668,-0.02771,-0.213501,0.569702,0.793091
1535253245823234,-0.02771,-0.213501,0.569702,0.793091
1535253245845291,-0.02771,-0.213501,0.569763,0.793091
1535253245859822,-0.02771,-0.21344,0.569763,0.793091
1535253245883485,-0.02771,-0.21344,0.569763,0.793091
1535253245905443,-0.02771,-0.21344,0.569763,0.793091
1535253245919480,-0.02771,-0.21344,0.569763,0.793091
1535253245942542,-0.02771,-0.21344,0.569763,0.793091
1535253245965622,-0.02771,-0.213379,0.569763,0.793091
1535253245979825,-0.02771,-0.213379,0.569763,0.793091
1535253246003204,-0.02771,-0.213379,0.569763,0.793091
1535253246025448,-0.02771,-0.213379,0.569763,0.793091
1535253246046327,-0.02771,-0.213318,0.569763,0.793091
1535253246062977,-0.02771,-0.213318,0.569763,0.793091
1535253246085542,-0.02771,-0.213318,0.569763,0.793091
1535253246106600,-0.02771,-0.213318,0.569763,0.793091
1535253246122642,-0.02771,-0.213257,0.569763,0.793152
1535253246145192,-0.02771,-0.213257,0.569763,0.793152
1535253246166796,-0.02771,-0.213257,0.569763,0.793152
1535253246182794,-0.02771,-0.213196,0.569763,0.793152
1535253246205359,-0.02771,-0.213196,0.569763,0.793152
1535253246226409,-0.02771,-0.213196,0.569763,0.793152
1535253246243050,-0.02771,-0.213196,0.569763,0.793152
1535253246265511,-0.02771,-0.213135,0.569763,0.793152
1535253246286592,-0.02771,-0.213135,0.569763,0.793152
1535253246302637,-0.02771,-0.213135,0.569763,0.793152
1535253246331216,-0.02771,-0.213135,0.569763,0.793152
1535253246346753,-0.02771,-0.213074,0.569763,0.793152
1535253246362795,-0.02771,-0.213074,0.569763,0.793152
1535253246385360,-0.02771,-0.213074,0.569763,0.793152
1535253246406416,-0.02771,-0.213074,0.569763,0.793152
1535253246422955,-0.02771,-0.213074,0.569763,0.793152
1535253246445516,-0.02771,-0.213074,0.569824,0.793152
1535253246466580,-0.02771,-0.213074,0.569824,0.793152
1535253246482614,-0.02771,-0.213074,0.569763,0.793152
1535253246505174,-0.02771,-0.213074,0.569763,0.793152
1535253246527736,-0.02771,-0.213074,0.569824,0.793152
1535253246542773,-0.02771,-0.213013,0.569824,0.793152
1535253246565390,-0.02771,-0.213013,0.569824,0.793152
1535253246587962,-0.02771,-0.213013,0.569824,0.793152
1535253246610455,-0.02771,-0.213013,0.569824,0.793152
1535253246625493,-0.02771,-0.213013,0.569824,0.793152
1535253246647581,-0.02771,-0.213013,0.569824,0.793152
1535253246662110,-0.02771,-0.213013,0.569824,0.793152
1535253246685388,-0.02771,-0.212952,0.569824,0.793152
1535253246707731,-0.02771,-0.212952,0.569824,0.793152
1535253246722271,-0.02771,-0.212952,0.569824,0.793152
1535253246745330,-0.02771,-0.212952,0.569824,0.793152
1535253246767890,-0.02771,-0.212952,0.569824,0.793152
1535253246781931,-0.02771,-0.212952,0.569824,0.793152
1535253246805142,-0.02771,-0.212952,0.569824,0.793152
1535253246828080,-0.02771,-0.212952,0.569824,0.793152
1535253246842247,-0.02771,-0.212952,0.569824,0.793213
1535253246865189,-0.02771,-0.212891,0.569824,0.793213
1535253246887742,-0.02771,-0.212891,0.569824,0.793213
1535253246902355,-0.02771,-0.212891,0.569824,0.793213
1535253246931355,-0.02771,-0.212952,0.569824,0.793213
1535253246947899,-0.02771,-0.212952,0.569824,0.793213
1535253246962125,-0.02771,-0.212891,0.569824,0.793213
1535253246985195,-0.02771,-0.212952,0.569824,0.793152
1535253247007746,-0.02771,-0.212891,0.569824,0.793213
1535253247029305,-0.02771,-0.212891,0.569824,0.793213
1535253247045347,-0.02771,-0.212891,0.569824,0.793213
1535253247067907,-0.02771,-0.212891,0.569824,0.793213
1535253247088966,-0.02771,-0.212891,0.569824,0.793213
1535253247105506,-0.02771,-0.212891,0.569824,0.793213
1535253247128105,-0.02771,-0.212952,0.569824,0.793152
1535253247149124,-0.02771,-0.212952,0.569824,0.793152
1535253247165172,-0.02771,-0.212891,0.569824,0.793213
1535253247187724,-0.02771,-0.212952,0.569824,0.793213
1535253247210285,-0.0276489,-0.212891,0.569824,0.793213
1535253247225329,-0.027771,-0.213257,0.569702,0.793152
1535253247247887,-0.0275879,-0.213013,0.569702,0.793213
1535253247270445,-0.027832,-0.213257,0.569702,0.793213
1535253247285483,-0.027832,-0.213257,0.569702,0.793213
1535253247308050,-0.027832,-0.213257,0.569702,0.793213
1535253247329101,-0.027832,-0.213257,0.569702,0.793213
1535253247345149,-0.027832,-0.213257,0.569702,0.793213
1535253247368706,-0.027832,-0.213257,0.569702,0.793213
1535253247388873,-0.027832,-0.213257,0.569702,0.793213
1535253247405314,-0.027832,-0.213257,0.569702,0.793213
1535253247427864,-0.027832,-0.213257,0.569702,0.793213
1535253247450426,-0.027832,-0.213257,0.569702,0.793213
1535253247465478,-0.027832,-0.213257,0.569702,0.793152
1535253247488529,-0.0278931,-0.213074,0.569702,0.793213
1535253247511589,-0.0278931,-0.213135,0.569702,0.793213
1535253247525624,-0.0278931,-0.213135,0.569702,0.793213
1535253247547684,-0.0278931,-0.213074,0.569702,0.793213
1535253247570472,-0.0278931,-0.213074,0.569702,0.793213
1535253247585282,-0.0278931,-0.213074,0.569702,0.793213
1535253247607842,-0.0278931,-0.213074,0.569702,0.793213
1535253247630469,-0.0278931,-0.213013,0.569702,0.793213
1535253247644439,-0.0278931,-0.213135,0.569702,0.793213
1535253247668005,-0.0278931,-0.213074,0.569702,0.793213
1535253247690564,-0.0278931,-0.213135,0.569702,0.793213
1535253247704634,-0.027832,-0.213013,0.569702,0.793274
1535253247727663,-0.027832,-0.212952,0.569702,0.793274
1535253247750293,-0.027832,-0.212952,0.569702,0.793274
1535253247764761,-0.027832,-0.212952,0.569702,0.793274
1535253247787921,-0.027832,-0.212952,0.569702,0.793274
1535253247810380,-0.0276489,-0.21283,0.569702,0.793274
1535253247824418,-0.0276489,-0.21283,0.569702,0.793274
1535253247847984,-0.0276489,-0.21283,0.569702,0.793274
1535253247870054,-0.0276489,-0.21283,0.569702,0.793274
1535253247884579,-0.0276489,-0.21283,0.569702,0.793274
1535253247907640,-0.0276489,-0.212769,0.569702,0.793274
1535253247931702,-0.0276489,-0.21283,0.569702,0.793274
1535253247951255,-0.0276489,-0.21283,0.569702,0.793274
1535253247967799,-0.0276489,-0.21283,0.569702,0.793274
1535253247990364,-0.0276489,-0.21283,0.569702,0.793274
1535253248011415,-0.0276489,-0.212769,0.569763,0.793274
1535253248027959,-0.0276489,-0.212708,0.569763,0.793274
1535253248050522,-0.0276489,-0.212769,0.569763,0.793274
1535253248079098,-0.0276489,-0.212769,0.569763,0.793274
1535253248088188,-0.0276489,-0.212769,0.569763,0.793274
1535253248110681,-0.0275879,-0.212769,0.569763,0.793274
1535253248131235,-0.0276489,-0.212769,0.569763,0.793274
1535253248147782,-0.0276489,-0.212769,0.569763,0.793274
1535253248170343,-0.0276489,-0.212769,0.569763,0.793274
1535253248191394,-0.0276489,-0.212708,0.569763,0.793274
1535253248207938,-0.0276489,-0.212708,0.569763,0.793274
1535253248230512,-0.0276489,-0.212708,0.569763,0.793274
1535253248251554,-0.0276489,-0.212769,0.569763,0.793274
1535253248267728,-0.0276489,-0.212769,0.569763,0.793274
1535253248297693,-0.0276489,-0.212708,0.569763,0.793274
1535253248311220,-0.0276489,-0.212708,0.569763,0.793274
1535253248327759,-0.0276489,-0.212646,0.569763,0.793274
1535253248350325,-0.0276489,-0.212646,0.569763,0.793274
1535253248371417,-0.0275879,-0.212708,0.569763,0.793274
1535253248387418,-0.0275879,-0.212708,0.569763,0.793335
1535253248410481,-0.0276489,-0.212708,0.569763,0.793274
1535253248432546,-0.027771,-0.212463,0.569702,0.793396
1535253248447587,-0.027832,-0.212097,0.569641,0.793518
1535253248470637,-0.027832,-0.212097,0.569641,0.793518
1535253248494216,-0.027832,-0.212097,0.569641,0.793518
1535253248507747,-0.027771,-0.212097,0.569641,0.793518
1535253248530345,-0.027771,-0.212158,0.569641,0.793518
1535253248553405,-0.027832,-0.212097,0.569641,0.793518
1535253248567446,-0.027771,-0.212097,0.569641,0.793518
1535253248596520,-0.027771,-0.212036,0.569641,0.793518
1535253248612561,-0.027771,-0.212097,0.569641,0.793518
1535253248627200,-0.027771,-0.212036,0.569641,0.793518
1535253248650169,-0.027771,-0.212036,0.569641,0.793518
1535253248672728,-0.027771,-0.212097,0.569641,0.793518
1535253248687264,-0.027771,-0.212036,0.569641,0.793518
1535253248710341,-0.027771,-0.212036,0.569641,0.793518
1535253248732893,-0.027832,-0.212036,0.569641,0.793518
1535253248747432,-0.027832,-0.212036,0.569641,0.793518
1535253248770493,-0.027771,-0.211975,0.569641,0.793518
1535253248792555,-0.027771,-0.211975,0.569641,0.793518
1535253248807089,-0.027771,-0.211975,0.569641,0.793518
1535253248830151,-0.027771,-0.211975,0.569641,0.793518
1535253248852712,-0.027771,-0.211975,0.569641,0.793518
1535253248873769,-0.027771,-0.211975,0.569702,0.793518
1535253248890317,-0.027771,-0.211914,0.569702,0.793518
1535253248912877,-0.027771,-0.211914,0.569702,0.793518
1535253248933936,-0.027771,-0.211914,0.569702,0.793518
1535253248950471,-0.027771,-0.211914,0.569702,0.793518
1535253248973032,-0.027771,-0.211914,0.569702,0.793518
1535253248994163,-0.027771,-0.211914,0.569702,0.793579
1535253249010156,-0.027771,-0.211914,0.569702,0.793579
1535253249032719,-0.027771,-0.211914,0.569702,0.793518
1535253249053778,-0.027771,-0.211914,0.569702,0.793579
1535253249070523,-0.027771,-0.211853,0.569702,0.793579
1535253249092933,-0.027771,-0.211853,0.569702,0.793579
1535253249113936,-0.027771,-0.211914,0.569702,0.793579
1535253249130558,-0.027771,-0.211853,0.569702,0.793579
1535253249153037,-0.027771,-0.211853,0.569702,0.793579
1535253249174100,-0.027771,-0.211792,0.569702,0.793579
1535253249190527,-0.027771,-0.211792,0.569702,0.793579
1535253249212697,-0.027771,-0.211792,0.569702,0.793579
1535253249233756,-0.027771,-0.211792,0.569702,0.793579
1535253249256375,-0.027771,-0.211792,0.569702,0.793579
1535253249272862,-0.027771,-0.211792,0.569702,0.793579
1535253249294027,-0.027771,-0.211792,0.569702,0.793579
1535253249310462,-0.027771,-0.211792,0.569702,0.793579
1535253249333020,-0.027771,-0.211731,0.569702,0.793579
1535253249355576,-0.027771,-0.211731,0.569702,0.793579
1535253249370617,-0.027771,-0.211731,0.569702,0.793579
1535253249406330,-0.027771,-0.211731,0.569702,0.793579
1535253249415237,-0.027771,-0.211731,0.569702,0.793579
1535253249430276,-0.027771,-0.211731,0.569702,0.793579
1535253249452834,-0.027771,-0.211731,0.569702,0.793579
1535253249475433,-0.027771,-0.211731,0.569702,0.793579
1535253249489433,-0.02771,-0.21167,0.569702,0.793579
1535253249512570,-0.027771,-0.21167,0.569702,0.793579
1535253249535480,-0.02771,-0.21167,0.569702,0.793579
1535253249549590,-0.027832,-0.212036,0.56958,0.793579
1535253249573154,-0.027832,-0.212036,0.56958,0.793579
1535253249595224,-0.027832,-0.211975,0.569641,0.793579
1535253249609751,-0.0280151,-0.211975,0.569519,0.79364
1535253249632813,-0.0280151,-0.211975,0.569519,0.79364
1535253249655374,-0.0279541,-0.211975,0.569519,0.79364
1535253249676431,-0.0279541,-0.211975,0.569519,0.79364
1535253249692974,-0.0280151,-0.211975,0.569519,0.79364
1535253249721706,-0.0280151,-0.211975,0.569519,0.79364
1535253249729572,-0.0280151,-0.211975,0.569519,0.79364
1535253249752635,-0.0279541,-0.211975,0.569519,0.79364
1535253249775195,-0.0280151,-0.211975,0.569519,0.79364
1535253249789809,-0.0280151,-0.211975,0.569519,0.79364
1535253249812796,-0.0280151,-0.211975,0.569519,0.79364
1535253249835354,-0.0279541,-0.211975,0.569519,0.79364
1535253249856466,-0.0279541,-0.211914,0.569519,0.79364
1535253249872952,-0.0279541,-0.211975,0.569519,0.79364
1535253249895514,-0.0279541,-0.211975,0.569519,0.79364
1535253249916568,-0.0279541,-0.211975,0.569519,0.79364
1535253249932618,-0.0279541,-0.211914,0.569519,0.79364
1535253249955176,-0.0279541,-0.211914,0.569519,0.79364
1535253249983751,-0.0279541,-0.211975,0.569519,0.79364
1535253249992782,-0.0279541,-0.211975,0.569519,0.79364
1535253250015333,-0.0279541,-0.211975,0.569519,0.79364
1535253250036386,-0.0279541,-0.211975,0.569519,0.79364
1535253250052930,-0.0279541,-0.211914,0.569519,0.79364
1535253250075415,-0.0279541,-0.211914,0.569519,0.79364
1535253250096550,-0.0279541,-0.211914,0.569519,0.79364
1535253250113147,-0.0279541,-0.211914,0.569519,0.79364
1535253250135656,-0.0279541,-0.211914,0.569519,0.79364
1535253250156213,-0.0279541,-0.211914,0.569519,0.79364
1535253250172995,-0.0279541,-0.211914,0.569519,0.79364
1535253250195315,-0.0279541,-0.211914,0.569519,0.79364
1535253250216500,-0.0279541,-0.211914,0.569519,0.79364
1535253250233414,-0.0279541,-0.211914,0.569519,0.79364
1535253250261488,-0.0279541,-0.211914,0.569519,0.79364
1535253250276528,-0.0279541,-0.211914,0.569519,0.79364
1535253250293070,-0.0279541,-0.211914,0.569519,0.79364
1535253250322650,-0.0279541,-0.211914,0.569519,0.79364
1535253250337785,-0.0279541,-0.211853,0.569519,0.79364
1535253250352739,-0.0279541,-0.211853,0.569519,0.79364
1535253250375301,-0.0279541,-0.211853,0.569519,0.79364
1535253250397849,-0.0278931,-0.211853,0.569519,0.79364
1535253250412392,-0.0278931,-0.211914,0.569519,0.79364
1535253250435464,-0.0279541,-0.211853,0.569519,0.79364
1535253250457508,-0.0279541,-0.211853,0.569519,0.79364
1535253250472048,-0.0279541,-0.211853,0.569519,0.79364
1535253250495620,-0.0279541,-0.211853,0.569519,0.793701
1535253250517669,-0.0279541,-0.211853,0.569519,0.793701
1535253250538760,-0.0279541,-0.211853,0.569519,0.793701
1535253250555311,-0.0278931,-0.211792,0.569519,0.793701
1535253250577834,-0.0278931,-0.211853,0.569519,0.793701
1535253250592366,-0.0278931,-0.211792,0.569519,0.793701
1535253250615466,-0.0279541,-0.211792,0.569519,0.793701
1535253250638030,-0.0278931,-0.211792,0.569519,0.793701
1535253250652037,-0.0278931,-0.211792,0.569519,0.793701
1535253250675086,-0.0278931,-0.211792,0.569519,0.793701
1535253250697690,-0.0278931,-0.211792,0.569519,0.793701
1535253250712379,-0.0279541,-0.211792,0.569519,0.793701
1535253250735247,-0.0278931,-0.211792,0.569519,0.793701
1535253250757809,-0.0278931,-0.211731,0.569519,0.793701
1535253250772345,-0.0278931,-0.211731,0.569519,0.793701
1535253250796196,-0.0278931,-0.211731,0.569519,0.793701
1535253250817977,-0.0279541,-0.211731,0.569519,0.793701
1535253250839048,-0.0279541,-0.211731,0.569519,0.793701
1535253250855569,-0.0279541,-0.211731,0.569519,0.793701
1535253250877756,-0.0279541,-0.211731,0.569519,0.793701
1535253250898682,-0.0279541,-0.211731,0.56958,0.793701
1535253250915227,-0.0279541,-0.211731,0.56958,0.793701
1535253250937786,-0.0279541,-0.21167,0.56958,0.793701
1535253250958872,-0.0279541,-0.21167,0.56958,0.793701
1535253250965860,-0.0279541,-0.211731,0.56958,0.793701
1535253250980401,-0.0279541,-0.211731,0.56958,0.793701
1535253251002959,-0.0279541,-0.21167,0.56958,0.793701
1535253251025584,-0.0279541,-0.21167,0.56958,0.793701
1535253251040837,-0.0279541,-0.21167,0.56958,0.793701
1535253251072147,-0.0279541,-0.21167,0.56958,0.793701
1535253251094703,-0.0279541,-0.21167,0.56958,0.793701
1535253251100716,-0.0279541,-0.21167,0.56958,0.793701
1535253251123278,-0.0279541,-0.21167,0.56958,0.793701
1535253251145839,-0.0279541,-0.21167,0.56958,0.793701
1535253251160416,-0.0279541,-0.211609,0.56958,0.793701
1535253251183440,-0.0279541,-0.211609,0.56958,0.793701
1535253251206005,-0.0279541,-0.211609,0.56958,0.793701
1535253251221044,-0.0279541,-0.211609,0.56958,0.793701
1535253251243097,-0.0279541,-0.211609,0.56958,0.793701
1535253251265660,-0.0279541,-0.211609,0.56958,0.793701
1535253251281199,-0.0279541,-0.211609,0.56958,0.793701
1535253251303259,-0.0279541,-0.211548,0.56958,0.793701
1535253251325821,-0.0279541,-0.211609,0.56958,0.793701
1535253251348380,-0.0279541,-0.211548,0.56958,0.793701
1535253251370939,-0.0279541,-0.211548,0.56958,0.793701
1535253251385978,-0.0279541,-0.211609,0.56958,0.793701
1535253251401024,-0.0279541,-0.211609,0.56958,0.793701
1535253251430597,-0.0280151,-0.211609,0.56958,0.793701
1535253251445639,-0.0280151,-0.211609,0.56958,0.793701
1535253251460780,-0.0280151,-0.211609,0.56958,0.793701
1535253251483241,-0.0279541,-0.211609,0.56958,0.793701
1535253251505922,-0.0280151,-0.211609,0.56958,0.793701
1535253251520841,-0.0280151,-0.211609,0.56958,0.793701
1535253251543397,-0.0279541,-0.211609,0.56958,0.793701
1535253251565644,-0.0279541,-0.211548,0.56958,0.793701
1535253251580494,-0.0280151,-0.211609,0.56958,0.793701
1535253251603356,-0.0280151,-0.211609,0.56958,0.793701
1535253251625621,-0.0280151,-0.211609,0.56958,0.793701
1535253251648175,-0.0279541,-0.211609,0.56958,0.793701
1535253251666260,-0.0279541,-0.211609,0.56958,0.793701
1535253251685787,-0.0279541,-0.211609,0.56958,0.793701
1535253251700844,-0.0279541,-0.211609,0.56958,0.793701
1535253251723398,-0.0279541,-0.211609,0.56958,0.793701
1535253251745958,-0.0279541,-0.211609,0.56958,0.793701
1535253251761007,-0.0279541,-0.211609,0.56958,0.793701
1535253251783647,-0.0279541,-0.211609,0.56958,0.793701
1535253251805622,-0.0279541,-0.211609,0.56958,0.793701
1535253251822178,-0.0279541,-0.211609,0.56958,0.793701
1535253251843332,-0.0279541,-0.211609,0.56958,0.793701
1535253251865782,-0.0279541,-0.211609,0.56958,0.793701
1535253251882321,-0.0279541,-0.211609,0.56958,0.793701
1535253251904883,-0.0279541,-0.211609,0.56958,0.793701
1535253251925940,-0.0279541,-0.211609,0.56958,0.793701
1535253251941983,-0.0280762,-0.211548,0.569641,0.793701
1535253251963538,-0.0282593,-0.211548,0.569641,0.79364
1535253251985596,-0.0283813,-0.211426,0.56958,0.793762
1535253252002144,-0.0283813,-0.211365,0.56958,0.793762
1535253252023198,-0.0283813,-0.211365,0.56958,0.793762
1535253252045858,-0.0283203,-0.211365,0.56958,0.793762
1535253252062311,-0.0283203,-0.211365,0.56958,0.793762
1535253252083365,-0.0283203,-0.211365,0.56958,0.793762
1535253252105936,-0.0283813,-0.211365,0.56958,0.793762
1535253252122132,-0.0283813,-0.211365,0.56958,0.793762
1535253252143182,-0.0283203,-0.211365,0.56958,0.793762
1535253252165736,-0.0283203,-0.211365,0.56958,0.793762
1535253252183782,-0.0283813,-0.211365,0.56958,0.793762
1535253252206344,-0.0283813,-0.211304,0.56958,0.793762
1535253252225930,-0.0283813,-0.211304,0.56958,0.793762
1535253252243949,-0.0283813,-0.211365,0.56958,0.793762
1535253252263498,-0.0283813,-0.211365,0.56958,0.793762
1535253252285665,-0.0283813,-0.211304,0.56958,0.793762
1535253252303608,-0.0283813,-0.211304,0.56958,0.793762
1535253252323163,-0.0283813,-0.211304,0.56958,0.793762
1535253252345715,-0.0283813,-0.211304,0.56958,0.793762
1535253252363768,-0.0283813,-0.211365,0.56958,0.793762
1535253252383313,-0.0284424,-0.211304,0.56958,0.793762
1535253252405874,-0.0284424,-0.211365,0.56958,0.793762
1535253252423421,-0.0284424,-0.211304,0.56958,0.793762
1535253252442970,-0.0284424,-0.211304,0.56958,0.793762
1535253252465688,-0.0284424,-0.211304,0.56958,0.793762
1535253252484083,-0.0284424,-0.211304,0.56958,0.793762
1535253252503132,-0.0284424,-0.211304,0.56958,0.793762
1535253252525893,-0.0284424,-0.211304,0.56958,0.793762
1535253252543900,-0.0284424,-0.211304,0.56958,0.793762
1535253252563334,-0.0284424,-0.211304,0.569641,0.793762
1535253252585856,-0.0285034,-0.211304,0.569641,0.793701
1535253252603901,-0.0285034,-0.211304,0.569641,0.793762
1535253252622952,-0.0285034,-0.211304,0.569641,0.793762
1535253252645510,-0.0285034,-0.211304,0.569641,0.793762
1535253252663632,-0.0285034,-0.211304,0.569641,0.793762
1535253252683112,-0.0285034,-0.211304,0.569641,0.793762
1535253252705676,-0.0285034,-0.211243,0.569641,0.793762
1535253252723719,-0.0285034,-0.211243,0.569641,0.793762
1535253252743295,-0.0285034,-0.211243,0.569641,0.793762
1535253252765833,-0.0285034,-0.211243,0.569641,0.793762
1535253252783379,-0.0285034,-0.211243,0.569641,0.793762
1535253252804515,-0.0285034,-0.211243,0.569641,0.793762
1535253252825490,-0.0285034,-0.211243,0.569641,0.793762
1535253252843562,-0.0285645,-0.211243,0.569641,0.793762
1535253252864601,-0.0285034,-0.211182,0.569641,0.793762
1535253252885753,-0.0285645,-0.211182,0.569641,0.793762
1535253252903864,-0.0285645,-0.211243,0.569641,0.793762
1535253252924874,-0.0285645,-0.211243,0.569641,0.793762
1535253252945903,-0.0285645,-0.211182,0.569641,0.793762
1535253252963862,-0.0285645,-0.211182,0.569641,0.793762
1535253252990932,-0.0285645,-0.211182,0.569641,0.793762
1535253253005972,-0.0286255,-0.211121,0.569641,0.793762
1535253253023520,-0.0286255,-0.211121,0.569641,0.793762
1535253253044623,-0.0286255,-0.211182,0.569641,0.793762
1535253253065653,-0.0286255,-0.211121,0.569641,0.793762
1535253253083679,-0.0286255,-0.211121,0.569641,0.793762
1535253253104736,-0.0286255,-0.211121,0.569641,0.793762
1535253253125965,-0.0286255,-0.211121,0.569641,0.793762
1535253253143838,-0.0285034,-0.211243,0.569702,0.793701
1535253253165999,-0.0283813,-0.211487,0.569641,0.79364
1535253253185950,-0.0284424,-0.211487,0.569641,0.79364
1535253253203497,-0.0284424,-0.211487,0.569641,0.79364
1535253253226142,-0.0284424,-0.211487,0.569641,0.79364
1535253253245609,-0.0284424,-0.211487,0.569641,0.79364
1535253253263803,-0.0284424,-0.211487,0.569641,0.79364
1535253253292425,-0.0284424,-0.211487,0.569641,0.79364
1535253253308776,-0.0284424,-0.211426,0.569641,0.79364
1535253253323817,-0.0284424,-0.211426,0.569641,0.79364
1535253253346377,-0.0284424,-0.211426,0.569641,0.79364
1535253253365938,-0.0284424,-0.211426,0.569641,0.79364
1535253253383822,-0.0284424,-0.211426,0.569641,0.79364
1535253253406140,-0.0284424,-0.211426,0.569641,0.79364
1535253253425629,-0.0284424,-0.211426,0.569641,0.79364
1535253253443812,-0.0284424,-0.211426,0.569702,0.79364
1535253253466196,-0.0284424,-0.211426,0.569702,0.79364
1535253253485789,-0.0284424,-0.211426,0.569702,0.79364
1535253253503867,-0.0284424,-0.211426,0.569702,0.79364
1535253253526356,-0.0284424,-0.211426,0.569702,0.79364
1535253253545908,-0.0284424,-0.211426,0.569702,0.79364
1535253253568467,-0.0285034,-0.211426,0.569641,0.79364
1535253253593534,-0.0285034,-0.211426,0.569702,0.79364
1535253253605623,-0.0284424,-0.211426,0.569641,0.79364
1535253253623615,-0.0284424,-0.211426,0.569702,0.79364
1535253253653753,-0.0285034,-0.211426,0.569702,0.79364
1535253253665728,-0.0284424,-0.211365,0.569702,0.79364
1535253253683774,-0.0284424,-0.211365,0.569702,0.79364
1535253253706334,-0.0284424,-0.211365,0.569702,0.79364
1535253253727072,-0.0286865,-0.211548,0.569702,0.793579
1535253253743487,-0.0286865,-0.211548,0.569702,0.793579
1535253253766023,-0.0287476,-0.211548,0.569702,0.793579
1535253253787057,-0.0287476,-0.211548,0.569702,0.793579
1535253253803595,-0.0286865,-0.211548,0.569702,0.793579
1535253253826654,-0.0286865,-0.211548,0.569702,0.793579
1535253253847210,-0.0286865,-0.211548,0.569702,0.793579
1535253253869769,-0.0287476,-0.211548,0.569702,0.793579
1535253253885812,-0.0287476,-0.211548,0.569702,0.793579
1535253253906868,-0.0287476,-0.211548,0.569702,0.793579
1535253253923410,-0.0287476,-0.211548,0.569763,0.793579
1535253253945972,-0.0287476,-0.211548,0.569763,0.793579
1535253253967077,-0.0287476,-0.211548,0.569763,0.793579
1535253253983570,-0.0287476,-0.211548,0.569763,0.793579
1535253254006133,-0.0287476,-0.211548,0.569763,0.793579
1535253254026736,-0.0287476,-0.211548,0.569763,0.793579
1535253254042228,-0.0287476,-0.211548,0.569763,0.793579
1535253254065288,-0.0287476,-0.211548,0.569763,0.793579
1535253254087919,-0.0287476,-0.211548,0.569763,0.793579
1535253254101957,-0.0287476,-0.211609,0.569763,0.793579
1535253254125093,-0.0287476,-0.211609,0.569702,0.793579
1535253254147783,-0.0287476,-0.211609,0.569763,0.793579
1535253254169181,-0.0287476,-0.211548,0.569763,0.793579
1535253254185208,-0.0288086,-0.211609,0.569763,0.793579
1535253254207765,-0.0287476,-0.211609,0.569763,0.793579
1535253254222372,-0.0287476,-0.211609,0.569702,0.793579
1535253254245432,-0.0288086,-0.211609,0.569763,0.793579
1535253254267991,-0.0288086,-0.211609,0.569702,0.793579
1535253254282030,-0.0287476,-0.211609,0.569702,0.793579
1535253254305090,-0.0287476,-0.211609,0.569702,0.793579
1535253254327651,-0.0287476,-0.211609,0.569702,0.793579
1535253254342187,-0.0287476,-0.211609,0.569702,0.793579
1535253254365250,-0.0287476,-0.211609,0.569702,0.793579
1535253254404482,-0.0287476,-0.211609,0.569702,0.793579
1535253254408871,-0.0287476,-0.21167,0.569702,0.793579
1535253254425424,-0.0287476,-0.21167,0.569702,0.793518
1535253254447983,-0.0288086,-0.21167,0.569702,0.793518
1535253254462006,-0.0287476,-0.211609,0.569702,0.793579
1535253254485583,-0.0287476,-0.21167,0.569702,0.793579
1535253254507630,-0.0288086,-0.21167,0.569702,0.793518
1535253254522166,-0.0288086,-0.21167,0.569702,0.793518
1535253254545329,-0.0288086,-0.21167,0.569702,0.793518
1535253254567788,-0.0288086,-0.21167,0.569702,0.793518
1535253254588960,-0.0288086,-0.211731,0.569702,0.793518
1535253254605407,-0.0288086,-0.211731,0.569702,0.793518
1535253254627953,-0.0288086,-0.211731,0.569702,0.793518
1535253254649086,-0.0288086,-0.211731,0.569702,0.793518
1535253254665568,-0.0288086,-0.211731,0.569702,0.793518
1535253254687609,-0.0288086,-0.211731,0.569702,0.793518
1535253254709166,-0.0288086,-0.211731,0.569702,0.793518
1535253254725208,-0.0288086,-0.211731,0.569702,0.793518
1535253254747806,-0.0288086,-0.211731,0.569702,0.793518
1535253254768860,-0.0288086,-0.211731,0.569702,0.793518
1535253254785407,-0.0288086,-0.211731,0.569702,0.793518
1535253254807968,-0.0288086,-0.211792,0.569702,0.793518
1535253254829060,-0.0288086,-0.211792,0.569702,0.793518
1535253254845071,-0.0288086,-0.211792,0.569702,0.793518
1535253254867632,-0.0288086,-0.211792,0.569702,0.793518
1535253254888783,-0.0288086,-0.211792,0.569702,0.793518
1535253254905361,-0.0288086,-0.211792,0.569702,0.793518
1535253254927282,-0.0288086,-0.211853,0.569702,0.793518
1535253254948882,-0.0288086,-0.211853,0.569702,0.793518
1535253254965391,-0.0288086,-0.211853,0.569702,0.793518
1535253254987944,-0.0288086,-0.211853,0.569702,0.793518
1535253255009050,-0.0288086,-0.211853,0.569702,0.793518
1535253255025545,-0.0288086,-0.211853,0.569702,0.793518
1535253255047604,-0.0288086,-0.211853,0.569702,0.793518
1535253255070163,-0.0288086,-0.211792,0.569702,0.793518
1535253255085203,-0.0288086,-0.211853,0.569702,0.793518
1535253255107766,-0.0288086,-0.211853,0.569702,0.793518
1535253255130323,-0.0288086,-0.211853,0.569702,0.793518
1535253255145364,-0.0288696,-0.211853,0.569702,0.793518
1535253255167924,-0.0288696,-0.211853,0.569702,0.793518
1535253255190486,-0.0288696,-0.211853,0.569702,0.793518
1535253255204522,-0.0288086,-0.211853,0.569702,0.793518
1535253255227589,-0.0288696,-0.211853,0.569702,0.793518
1535253255256664,-0.0288696,-0.211853,0.569702,0.793518
1535253255264689,-0.0288696,-0.211853,0.569702,0.793518
1535253255287744,-0.0288696,-0.211914,0.569702,0.793518
1535253255310307,-0.0288696,-0.211853,0.569702,0.793518
1535253255324841,-0.0288696,-0.211853,0.569702,0.793518
1535253255347903,-0.0288696,-0.211914,0.569702,0.793518
1535253255370463,-0.0288696,-0.211853,0.569702,0.793518
1535253255384535,-0.0288696,-0.211853,0.569702,0.793518
1535253255407835,-0.0288696,-0.211853,0.569702,0.793518
1535253255430284,-0.0288696,-0.211914,0.569702,0.793518
1535253255444771,-0.0288696,-0.211853,0.569702,0.793518
1535253255467924,-0.0288696,-0.211853,0.569702,0.793518
1535253255490280,-0.0289307,-0.211853,0.569702,0.793518
1535253255511395,-0.0289307,-0.211853,0.569702,0.793518
1535253255535410,-0.0289307,-0.211853,0.569702,0.793518
1535253255550440,-0.0289307,-0.211914,0.569702,0.793518
1535253255571499,-0.0289307,-0.211914,0.569702,0.793518
1535253255587540,-0.0289307,-0.211914,0.569702,0.793518
1535253255610100,-0.0289307,-0.211914,0.569702,0.793457
1535253255631154,-0.0289307,-0.211914,0.569702,0.793457
1535253255647699,-0.0289307,-0.211914,0.569702,0.793457
1535253255670258,-0.0289307,-0.211914,0.569702,0.793457
1535253255691417,-0.0289307,-0.211914,0.569702,0.793518
1535253255707859,-0.0289307,-0.211914,0.569702,0.793457
1535253255730457,-0.0289307,-0.211914,0.569702,0.793457
1535253255752152,-0.0289307,-0.211914,0.569702,0.793457
1535253255767874,-0.0289307,-0.211914,0.569702,0.793457
1535253255790076,-0.0289307,-0.211914,0.569702,0.793457
1535253255812787,-0.0289307,-0.211914,0.569702,0.793457
1535253255827677,-0.0289307,-0.211914,0.569702,0.793457
1535253255850244,-0.0289917,-0.211914,0.569702,0.793457
1535253255871298,-0.0289917,-0.211914,0.569702,0.793457
1535253255887839,-0.0289917,-0.211914,0.569702,0.793457
1535253255910399,-0.0289917,-0.211914,0.569702,0.793457
1535253255931503,-0.0289917,-0.211914,0.569702,0.793457
1535253255948000,-0.0289307,-0.211914,0.569702,0.793457
1535253255970559,-0.0289307,-0.211914,0.569702,0.793457
1535253255992756,-0.0289307,-0.211914,0.569702,0.793457
1535253256008219,-0.0289917,-0.211914,0.569702,0.793457
1535253256030273,-0.0289917,-0.211853,0.569702,0.793457
1535253256052778,-0.0289917,-0.211853,0.569702,0.793457
1535253256067823,-0.0289307,-0.211853,0.569702,0.793457
1535253256090379,-0.0289307,-0.211853,0.569702,0.793457
1535253256112951,-0.0289307,-0.211853,0.569702,0.793457
1535253256127483,-0.0289307,-0.211853,0.569702,0.793518
1535253256150538,-0.0289307,-0.211853,0.569702,0.793518
1535253256172775,-0.0289307,-0.211853,0.569702,0.793518
1535253256187137,-0.0289307,-0.211853,0.569702,0.793518
1535253256210197,-0.0289307,-0.211853,0.569702,0.793518
1535253256232811,-0.0289307,-0.211853,0.569702,0.793518
1535253256246865,-0.0289307,-0.211853,0.569702,0.793518
1535253256270412,-0.0289917,-0.211853,0.569702,0.793457
1535253256292975,-0.0289917,-0.211853,0.569702,0.793457
1535253256307511,-0.0289917,-0.211853,0.569702,0.793457
1535253256330579,-0.0289307,-0.211853,0.569702,0.793457
1535253256352636,-0.0289307,-0.211853,0.569702,0.793457
1535253256367682,-0.0289917,-0.211853,0.569702,0.793457
1535253256390233,-0.0289917,-0.211853,0.569702,0.793457
1535253256412848,-0.0289917,-0.211853,0.569702,0.793457
1535253256427330,-0.0289917,-0.211853,0.569702,0.793457
1535253256450391,-0.0289307,-0.211853,0.569702,0.793457
1535253256472952,-0.0289307,-0.211853,0.569702,0.793518
1535253256494018,-0.0289307,-0.211853,0.569702,0.793518
1535253256510552,-0.0289307,-0.211853,0.569702,0.793457
1535253256533123,-0.0289307,-0.211853,0.569702,0.793518
1535253256553920,-0.0289917,-0.211853,0.569702,0.793457
1535253256570420,-0.0289917,-0.211853,0.569702,0.793457
1535253256592772,-0.0289917,-0.211853,0.569702,0.793457
1535253256621348,-0.0289917,-0.211853,0.569702,0.793457
1535253256630371,-0.0289917,-0.211853,0.569702,0.793457
1535253256652929,-0.0289917,-0.211853,0.569702,0.793457
1535253256681505,-0.0289917,-0.211853,0.569702,0.793457
1535253256690531,-0.0289917,-0.211853,0.569702,0.793457
1535253256713002,-0.0289917,-0.211853,0.569702,0.793457
1535253256733692,-0.0289917,-0.211853,0.569763,0.793457
1535253256750433,-0.0289917,-0.211853,0.569763,0.793518
1535253256772892,-0.0289917,-0.211853,0.569763,0.793457
1535253256793948,-0.0289917,-0.211792,0.569763,0.793518
1535253256810490,-0.0289917,-0.211792,0.569763,0.793518
1535253256833052,-0.0290527,-0.211792,0.569763,0.793518
1535253256854106,-0.0289917,-0.211792,0.569763,0.793518
1535253256870201,-0.0289917,-0.211792,0.569763,0.793518
1535253256898723,-0.0290527,-0.211792,0.569763,0.793518
1535253256921327,-0.0290527,-0.211792,0.569763,0.793518
1535253256930311,-0.0290527,-0.211792,0.569763,0.793518
1535253256960467,-0.0290527,-0.211792,0.569763,0.793518
1535253256982952,-0.0290527,-0.211792,0.569763,0.793457
1535253256990472,-0.0290527,-0.211792,0.569763,0.793457
1535253257013035,-0.0290527,-0.211792,0.569763,0.793457
1535253257035091,-0.0289917,-0.211792,0.569763,0.793457
1535253257049628,-0.0289917,-0.211792,0.569763,0.793457
1535253257072689,-0.0289917,-0.211792,0.569763,0.793518
1535253257095252,-0.0289917,-0.211792,0.569763,0.793518
1535253257109787,-0.0289917,-0.211792,0.569763,0.793518
1535253257132848,-0.0290527,-0.211792,0.569763,0.793457
1535253257155408,-0.0290527,-0.211792,0.569763,0.793457
1535253257169607,-0.0290527,-0.211792,0.569763,0.793457
1535253257192518,-0.0289917,-0.211792,0.569763,0.793457
1535253257215070,-0.0289917,-0.211792,0.569763,0.793518
1535253257229826,-0.0289917,-0.211792,0.569763,0.793457
1535253257252809,-0.0290527,-0.211853,0.569763,0.793457
1535253257275226,-0.0290527,-0.211853,0.569763,0.793457
1535253257289765,-0.0289917,-0.211853,0.569763,0.793457
1535253257312833,-0.0290527,-0.211853,0.569763,0.793457
1535253257335479,-0.0289917,-0.211853,0.569763,0.793457
1535253257349426,-0.0289917,-0.211853,0.569763,0.793457
1535253257372996,-0.0290527,-0.211853,0.569763,0.793457
1535253257402566,-0.0289917,-0.211853,0.569763,0.793457
1535253257416197,-0.0290527,-0.211853,0.569763,0.793457
1535253257432662,-0.0290527,-0.211853,0.569763,0.793457
1535253257455206,-0.0290527,-0.211914,0.569702,0.793457
1535253257477768,-0.0290527,-0.211914,0.569702,0.793457
1535253257492805,-0.0290527,-0.211914,0.569702,0.793457
1535253257515367,-0.0290527,-0.211914,0.569702,0.793457
1535253257536469,-0.0290527,-0.211914,0.569702,0.793457
1535253257559028,-0.0289917,-0.211914,0.569702,0.793457
1535253257575531,-0.0289917,-0.211914,0.569702,0.793457
1535253257596651,-0.0290527,-0.211914,0.569702,0.793457
1535253257612687,-0.0290527,-0.211914,0.569702,0.793457
1535253257635248,-0.0290527,-0.211975,0.569702,0.793457
1535253257656648,-0.0290527,-0.211975,0.569702,0.793457
1535253257672686,-0.0290527,-0.211975,0.569702,0.793457
1535253257695244,-0.0290527,-0.211975,0.569702,0.793457
1535253257716300,-0.0290527,-0.212036,0.569702,0.793457
1535253257732947,-0.0290527,-0.212036,0.569702,0.793457
1535253257755402,-0.0290527,-0.212036,0.569702,0.793457
1535253257776567,-0.0290527,-0.211975,0.569702,0.793457
1535253257793005,-0.0290527,-0.211975,0.569702,0.793457
1535253257815189,-0.0290527,-0.211975,0.569702,0.793457
1535253257836671,-0.0290527,-0.212036,0.569702,0.793457
1535253257853164,-0.0290527,-0.212036,0.569702,0.793457
1535253257875230,-0.0290527,-0.212036,0.569702,0.793457
1535253257897783,-0.0290527,-0.212036,0.569702,0.793457
1535253257912823,-0.0290527,-0.212036,0.569702,0.793457
1535253257935382,-0.0291138,-0.212036,0.569702,0.793457
1535253257957943,-0.0291138,-0.212036,0.569702,0.793457
1535253257972982,-0.0290527,-0.212036,0.569702,0.793457
1535253258002935,-0.0290527,-0.212036,0.569702,0.793457
1535253258017607,-0.0290527,-0.212097,0.569702,0.793457
1535253258032152,-0.0291138,-0.212097,0.569702,0.793457
1535253258055532,-0.0291138,-0.212097,0.569702,0.793457
1535253258078096,-0.0291138,-0.212036,0.569702,0.793457
1535253258092134,-0.0291138,-0.212036,0.569702,0.793457
1535253258115191,-0.0291138,-0.212036,0.569702,0.793457
1535253258138348,-0.0291138,-0.212036,0.569702,0.793457
1535253258152288,-0.0291138,-0.212097,0.569702,0.793457
1535253258175352,-0.0291138,-0.212097,0.569702,0.793457
1535253258197909,-0.0291138,-0.212097,0.569702,0.793396
1535253258212192,-0.0291138,-0.212097,0.569702,0.793396
1535253258235517,-0.0291138,-0.212097,0.569702,0.793396
1535253258257570,-0.0291138,-0.212097,0.569702,0.793396
1535253258272431,-0.0291138,-0.212097,0.569702,0.793396
1535253258295672,-0.0291748,-0.212097,0.569702,0.793396
1535253258325251,-0.0291748,-0.212036,0.569702,0.793396
1535253258332269,-0.0291748,-0.212036,0.569702,0.793457
1535253258355328,-0.0291748,-0.212036,0.569702,0.793396
1535253258377889,-0.0291748,-0.212097,0.569702,0.793396
1535253258398950,-0.0291748,-0.212097,0.569702,0.793396
1535253258415487,-0.0291748,-0.212097,0.569702,0.793396
1535253258437912,-0.0291748,-0.212097,0.569702,0.793396
1535253258459104,-0.0291748,-0.212097,0.569702,0.793396
1535253258475147,-0.0291748,-0.212097,0.569702,0.793396
1535253258497835,-0.0291748,-0.212097,0.569702,0.793396
1535253258518762,-0.0291748,-0.212097,0.569702,0.793396
1535253258535306,-0.0291748,-0.212036,0.569702,0.793396
1535253258557365,-0.0291748,-0.212097,0.569702,0.793396
1535253258578925,-0.0291748,-0.212097,0.569702,0.793396
1535253258595469,-0.0291748,-0.212036,0.569763,0.793396
1535253258618027,-0.0292358,-0.212097,0.569763,0.793396
1535253258639087,-0.0292358,-0.212097,0.569702,0.793396
1535253258655135,-0.0292358,-0.212097,0.569763,0.793396
1535253258677864,-0.0292358,-0.212097,0.569763,0.793396
1535253258698750,-0.0292358,-0.212097,0.569763,0.793396
1535253258715496,-0.0292358,-0.212097,0.569763,0.793396
1535253258737850,-0.0292358,-0.212097,0.569763,0.793396
1535253258758904,-0.0292358,-0.212097,0.569763,0.793396
1535253258775446,-0.0292358,-0.212097,0.569763,0.793396
1535253258798007,-0.0292358,-0.212097,0.569763,0.793396
1535253258820568,-0.0292358,-0.212036,0.569763,0.793396
1535253258842640,-0.0292358,-0.212036,0.569763,0.793396
1535253258864186,-0.0292358,-0.212036,0.569763,0.793396
1535253258880277,-0.0292358,-0.212036,0.569763,0.793396
1535253258895266,-0.0292358,-0.212036,0.569763,0.793396
1535253258917840,-0.0292358,-0.212036,0.569763,0.793396
1535253258940272,-0.0292358,-0.212036,0.569763,0.793396
1535253258954602,-0.0292358,-0.212036,0.569763,0.793396
1535253258977768,-0.0292358,-0.211975,0.569763,0.793396
1535253259000221,-0.0292358,-0.211975,0.569763,0.793396
1535253259014761,-0.0292358,-0.211975,0.569763,0.793396
1535253259037821,-0.0292358,-0.211975,0.569763,0.793457
1535253259060382,-0.0292358,-0.211975,0.569763,0.793457
1535253259074418,-0.0292358,-0.211975,0.569763,0.793396
1535253259097985,-0.0292358,-0.211975,0.569763,0.793457
1535253259120546,-0.0292358,-0.211975,0.569763,0.793396
1535253259134592,-0.0292358,-0.211975,0.569763,0.793457
1535253259157641,-0.0292358,-0.211914,0.569763,0.793457
1535253259180202,-0.0292358,-0.211914,0.569763,0.793457
1535253259202816,-0.0292358,-0.211914,0.569763,0.793457
1535253259217801,-0.0292358,-0.211914,0.569763,0.793457
1535253259240860,-0.0292358,-0.211914,0.569763,0.793457
1535253259254401,-0.0292358,-0.211914,0.569763,0.793457
1535253259277458,-0.0292358,-0.211853,0.569763,0.793457
1535253259300022,-0.0292358,-0.211853,0.569763,0.793457
1535253259321713,-0.0292358,-0.211853,0.569763,0.793457
1535253259338124,-0.0292969,-0.211853,0.569763,0.793457
1535253259360320,-0.0292358,-0.211853,0.569763,0.793457
1535253259381237,-0.0292358,-0.211853,0.569763,0.793457
1535253259398120,-0.0292358,-0.211853,0.569763,0.793457
1535253259420339,-0.0292358,-0.211853,0.569763,0.793457
1535253259441395,-0.0292358,-0.211853,0.569763,0.793457
1535253259458021,-0.0292358,-0.211853,0.569763,0.793457
1535253259479998,-0.0292358,-0.211853,0.569763,0.793457
1535253259501556,-0.0292358,-0.211853,0.569763,0.793457
1535253259518100,-0.0292358,-0.211792,0.569763,0.793457
1535253259540365,-0.0292358,-0.211792,0.569763,0.793457
1535253259561328,-0.0292358,-0.211792,0.569763,0.793457
1535253259577839,-0.0292358,-0.211792,0.569763,0.793457
1535253259600319,-0.0292358,-0.211792,0.569763,0.793457
1535253259621373,-0.0292358,-0.211792,0.569763,0.793457
1535253259637917,-0.0292358,-0.211792,0.569763,0.793457
1535253259660476,-0.0292358,-0.211792,0.569763,0.793457
1535253259681582,-0.0292969,-0.211792,0.569763,0.793457
1535253259698116,-0.0292358,-0.211792,0.569763,0.793457
1535253259720251,-0.0292358,-0.211792,0.569763,0.793457
1535253259741195,-0.0292358,-0.211792,0.569763,0.793457
1535253259757736,-0.0292358,-0.211792,0.569763,0.793457
1535253259780486,-0.0292358,-0.211792,0.569763,0.793457
1535253259802860,-0.0292358,-0.211792,0.569763,0.793457
1535253259817898,-0.0292358,-0.211792,0.569763,0.793457
1535253259840463,-0.0292969,-0.211792,0.569763,0.793457
1535253259863018,-0.0292969,-0.211792,0.569763,0.793457
1535253259877055,-0.0292969,-0.211792,0.569763,0.793457
1535253259900334,-0.0292969,-0.211792,0.569763,0.793457
1535253259922841,-0.0292969,-0.211792,0.569763,0.793457
1535253259943735,-0.0292969,-0.211792,0.569763,0.793457
1535253259960280,-0.0292969,-0.211792,0.569763,0.793457
1535253259982885,-0.0292969,-0.211792,0.569763,0.793457
1535253259996879,-0.0293579,-0.211975,0.569824,0.793396
1535253260020434,-0.0293579,-0.211975,0.569824,0.793396
1535253260042493,-0.0293579,-0.211975,0.569824,0.793396
1535253260057031,-0.0293579,-0.211975,0.569763,0.793396
1535253260080092,-0.0292969,-0.211975,0.569763,0.793396
1535253260102654,-0.0292969,-0.211975,0.569763,0.793396
1535253260117397,-0.0292969,-0.211975,0.569824,0.793396
1535253260140255,-0.0293579,-0.211975,0.569824,0.793396
1535253260162825,-0.0292969,-0.211975,0.569763,0.793396
1535253260177353,-0.0292969,-0.211975,0.569763,0.793396
1535253260200414,-0.0293579,-0.211975,0.569763,0.793396
1535253260229030,-0.0293579,-0.211975,0.569763,0.793396
1535253260251557,-0.0293579,-0.211975,0.569763,0.793396
1535253260267695,-0.0293579,-0.211975,0.569763,0.793396
1535253260290176,-0.0293579,-0.211975,0.569763,0.793396
1535253260303691,-0.0290527,-0.212036,0.569824,0.793396
1535253260320230,-0.0287476,-0.21228,0.569824,0.793274
1535253260342824,-0.0280762,-0.212524,0.569885,0.793213
1535253260363659,-0.0276489,-0.21283,0.569885,0.793152
1535253260380260,-0.0275879,-0.213013,0.569946,0.793091
1535253260402762,-0.0278931,-0.213562,0.569885,0.792969
1535253260423818,-0.027832,-0.213562,0.569824,0.79303
1535253260430839,-0.027832,-0.213501,0.569824,0.79303
1535253260445486,-0.0280151,-0.213501,0.569824,0.79303
1535253260467936,-0.0280151,-0.213501,0.569824,0.79303
1535253260490545,-0.0280762,-0.21344,0.569763,0.79303
1535253260505584,-0.0281982,-0.213257,0.569763,0.793091
1535253260529650,-0.0285034,-0.213196,0.569763,0.793091
1535253260550706,-0.0285034,-0.21283,0.569763,0.793213
1535253260565745,-0.0285034,-0.212769,0.569824,0.793213
1535253260588337,-0.0285034,-0.212769,0.569824,0.793213
1535253260610912,-0.0285034,-0.212769,0.569824,0.793213
1535253260625907,-0.0285034,-0.21283,0.569763,0.793213
1535253260648612,-0.0285034,-0.21283,0.569763,0.793213
1535253260670568,-0.0285034,-0.212769,0.569824,0.793213
1535253260685566,-0.0285645,-0.212769,0.569824,0.793213
1535253260708166,-0.0285034,-0.21283,0.569824,0.793213
1535253260730689,-0.0285645,-0.21283,0.569824,0.793213
1535253260745777,-0.0285645,-0.21283,0.569824,0.793213
1535253260775819,-0.0285645,-0.212524,0.569885,0.793213
1535253260790846,-0.0285645,-0.212524,0.569946,0.793213
1535253260805886,-0.0285645,-0.212524,0.569946,0.793213
1535253260828462,-0.0285645,-0.212524,0.569946,0.793213
1535253260850614,-0.0285645,-0.212463,0.569946,0.793213
1535253260867056,-0.0285645,-0.212463,0.569946,0.793213
1535253260888145,-0.0285645,-0.212524,0.569946,0.793213
1535253260910674,-0.0285645,-0.212524,0.569946,0.793213
1535253260925704,-0.0285645,-0.212524,0.569946,0.793213
