timestamp,x,y,z,w
1535252457917436,-0.513306,-0.375732,0.506409,0.582153
1535252457941464,-0.513123,-0.375854,0.506287,0.582397
1535252457956505,-0.513,-0.375854,0.506042,0.582642
1535252457977560,-0.513,-0.376038,0.50592,0.582642
1535252458001624,-0.513184,-0.376648,0.505615,0.582336
1535252458016664,-0.513184,-0.376648,0.505554,0.582336
1535252458068802,-0.513,-0.376526,0.505615,0.582581
1535252458068802,-0.513062,-0.376343,0.505737,0.582581
1535252458077827,-0.513123,-0.376282,0.505859,0.582397
1535252458092424,-0.513184,-0.376038,0.506104,0.582336
1535252458106904,-0.513184,-0.376038,0.506104,0.582336
1535252458127961,-0.513184,-0.376038,0.506104,0.582336
1535252458152025,-0.513,-0.375977,0.506165,0.582458
1535252458180099,-0.513,-0.375977,0.506165,0.582458
1535252458191127,-0.513,-0.375793,0.506226,0.58252
1535252458210240,-0.513,-0.375854,0.506226,0.58252
1535252458233660,-0.513,-0.375854,0.506226,0.58252
1535252458247981,-0.513,-0.375854,0.506226,0.58252
1535252458278361,-0.513,-0.375854,0.506165,0.582458
1535252458285379,-0.512756,-0.375916,0.506104,0.582825
1535252458307756,-0.512573,-0.375977,0.505981,0.583008
1535252458329540,-0.512634,-0.376343,0.505737,0.582947
1535252458344538,-0.512634,-0.376343,0.505737,0.582947
1535252458367597,-0.512634,-0.376404,0.505737,0.582947
1535252458389656,-0.512634,-0.376404,0.505737,0.582947
1535252458404696,-0.512695,-0.376404,0.505737,0.582764
1535252458427758,-0.512695,-0.376099,0.50592,0.582825
1535252458449872,-0.512878,-0.375916,0.506042,0.582703
1535252458464856,-0.513123,-0.375793,0.506104,0.58252
1535252458487918,-0.513306,-0.375549,0.506104,0.582458
1535252458509977,-0.513611,-0.375305,0.506226,0.582275
1535252458526501,-0.513916,-0.375122,0.506348,0.582092
1535252458547075,-0.514282,-0.374939,0.50647,0.581726
1535252458578159,-0.514465,-0.374756,0.506531,0.581665
1535252458586288,-0.514282,-0.374451,0.506653,0.581848
1535252458607234,-0.51416,-0.37439,0.506714,0.58197
1535252458630297,-0.51416,-0.37439,0.506714,0.58197
1535252458646375,-0.514038,-0.374573,0.506531,0.582092
1535252458667394,-0.513977,-0.374756,0.506348,0.582214
1535252458690457,-0.513977,-0.374817,0.506348,0.582214
1535252458706500,-0.513977,-0.374817,0.506287,0.582214
1535252458727662,-0.514038,-0.374817,0.506287,0.582153
1535252458749657,-0.514038,-0.374817,0.506287,0.582153
1535252458766661,-0.514038,-0.374817,0.506287,0.582153
1535252458790723,-0.514038,-0.374817,0.506287,0.582153
1535252458809774,-0.514038,-0.374878,0.506287,0.582153
1535252458826847,-0.514282,-0.375,0.506165,0.58197
1535252458847875,-0.514404,-0.374817,0.506287,0.581848
1535252458869961,-0.514526,-0.374512,0.50647,0.581787
1535252458886073,-0.514893,-0.374268,0.506714,0.581421
1535252458907035,-0.515564,-0.374084,0.506897,0.580811
1535252458930125,-0.516296,-0.373718,0.507324,0.580017
1535252458948142,-0.516907,-0.372925,0.507935,0.579407
1535252458967193,-0.5177,-0.371704,0.508728,0.578796
1535252458990254,-0.518677,-0.370483,0.509583,0.578003
1535252459008302,-0.519836,-0.369141,0.510498,0.576965
1535252459027381,-0.520996,-0.367676,0.511536,0.575867
1535252459050415,-0.522034,-0.36615,0.512634,0.574951
1535252459067460,-0.522766,-0.364258,0.513855,0.574402
1535252459087515,-0.523621,-0.362488,0.514954,0.573792
1535252459109680,-0.524658,-0.361084,0.515747,0.572998
1535252459127620,-0.525696,-0.359924,0.516541,0.572083
1535252459147700,-0.526428,-0.358826,0.517273,0.571472
1535252459170736,-0.526855,-0.357727,0.517944,0.571167
1535252459194800,-0.527039,-0.356628,0.518494,0.571106
1535252459210013,-0.526978,-0.355835,0.519043,0.571228
1535252459230894,-0.526794,-0.355347,0.519348,0.57135
1535252459247096,-0.526672,-0.355164,0.519348,0.571594
1535252459270006,-0.526489,-0.355225,0.519226,0.571838
1535252459291055,-0.526367,-0.355591,0.518982,0.57196
1535252459307098,-0.526306,-0.356079,0.518616,0.572083
1535252459329955,-0.526123,-0.356628,0.51825,0.572266
1535252459350248,-0.525879,-0.3573,0.517822,0.572388
1535252459367258,-0.525574,-0.357971,0.517517,0.572571
1535252459390319,-0.525269,-0.358337,0.517517,0.572632
1535252459410400,-0.525024,-0.358704,0.517639,0.57251
1535252459427417,-0.524658,-0.358887,0.5177,0.572632
1535252459449515,-0.524536,-0.358459,0.518188,0.572571
1535252459473126,-0.52533,-0.357483,0.519226,0.571533
1535252459486575,-0.527161,-0.35614,0.520569,0.569397
1535252459509637,-0.529236,-0.353943,0.522156,0.567383
1535252459531697,-0.530945,-0.350037,0.524719,0.565918
1535252459546737,-0.533142,-0.345215,0.528015,0.563721
1535252459569949,-0.536316,-0.339783,0.531799,0.560486
1535252459591855,-0.540405,-0.333313,0.536194,0.556213
1535252459620931,-0.544739,-0.325806,0.541138,0.551636
1535252459629956,-0.549438,-0.317688,0.546265,0.546631
1535252459652096,-0.554382,-0.308838,0.551819,0.541077
1535252459673106,-0.559814,-0.299683,0.557617,0.534668
1535252459690117,-0.565002,-0.28949,0.564087,0.527954
1535252459720079,-0.569885,-0.278748,0.571106,0.520874
1535252459733232,-0.574707,-0.267822,0.578125,0.513489
1535252459749274,-0.579773,-0.256714,0.584839,0.505859
1535252459772336,-0.585205,-0.245117,0.591675,0.497314
1535252459793392,-0.590698,-0.233215,0.598572,0.488159
1535252459809435,-0.595886,-0.221069,0.605591,0.478821
1535252459832498,-0.600952,-0.208313,0.612854,0.468811
1535252459853551,-0.606262,-0.194946,0.620361,0.457825
1535252459870010,-0.611572,-0.181763,0.627808,0.445862
1535252459891652,-0.616455,-0.168701,0.634888,0.434143
1535252459912709,-0.621094,-0.154907,0.641235,0.423096
1535252459929754,-0.625366,-0.140808,0.647583,0.411926
1535252459951889,-0.629639,-0.126953,0.653992,0.399597
1535252459972869,-0.633789,-0.114441,0.660156,0.386536
1535252459989915,-0.636963,-0.101929,0.666138,0.374329
1535252460011973,-0.639099,-0.0892334,0.672302,0.362732
1535252460033314,-0.64093,-0.0767212,0.678162,0.351257
1535252460050074,-0.6427,-0.0662231,0.683533,0.3396
1535252460073138,-0.643738,-0.0557861,0.688721,0.328796
1535252460093219,-0.645081,-0.0454102,0.693298,0.317993
1535252460109232,-0.643311,-0.0377808,0.699646,0.308594
1535252460132350,-0.644897,-0.0286865,0.702942,0.298645
1535252460153353,-0.643555,-0.0214233,0.708191,0.289429
1535252460169392,-0.642273,-0.0147095,0.713013,0.280762
1535252460192454,-0.64093,-0.00854492,0.717834,0.271729
1535252460220646,-0.639282,-0.00244141,0.722717,0.262573
1535252460228668,-0.637573,0.00268555,0.727539,0.253357
1535252460252626,-0.635864,0.00701904,0.731873,0.244873
1535252460280853,-0.634033,0.0115967,0.736084,0.236694
1535252460288905,-0.631958,0.0159302,0.74054,0.227844
1535252460311798,-0.630188,0.0189209,0.744446,0.219604
1535252460332876,-0.62854,0.0221558,0.747742,0.212952
1535252460348870,-0.62677,0.0256348,0.750793,0.20697
1535252460372991,-0.625305,0.0281982,0.753479,0.201172
1535252460395042,-0.624207,0.0299683,0.755432,0.196838
1535252460409029,-0.623474,0.0321045,0.756592,0.194397
1535252460432093,-0.622986,0.0339966,0.757202,0.193176
1535252460455158,-0.622864,0.034668,0.757263,0.193359
1535252460476214,-0.622925,0.034668,0.756714,0.19519
1535252460492252,-0.623291,0.0341187,0.755493,0.199036
1535252460515056,-0.623718,0.0326538,0.753845,0.203918
1535252460535370,-0.62439,0.0303955,0.751892,0.209351
1535252460552411,-0.625244,0.0270996,0.749573,0.215454
1535252460574470,-0.626221,0.0227051,0.746887,0.222351
1535252460595563,-0.62738,0.017334,0.743774,0.230042
1535252460612574,-0.628906,0.010437,0.739685,0.239136
1535252460634639,-0.630371,0.00244141,0.735046,0.249512
1535252460655734,-0.631653,-0.00579834,0.72998,0.260864
1535252460671780,-0.632446,-0.0152588,0.724915,0.272583
1535252460694791,-0.632874,-0.0259399,0.719727,0.28418
1535252460716199,-0.633057,-0.0377197,0.71405,0.29657
1535252460731890,-0.632507,-0.0487671,0.708679,0.308838
1535252460754951,-0.63147,-0.0595703,0.704102,0.319336
1535252460777481,-0.630432,-0.071106,0.699707,0.328491
1535252460800070,-0.629028,-0.0827026,0.695068,0.338074
1535252460815112,-0.627197,-0.0940552,0.690002,0.348816
1535252460835214,-0.625122,-0.10437,0.684814,0.359619
1535252460852213,-0.623108,-0.11438,0.679871,0.369385
1535252460874267,-0.621155,-0.124756,0.674927,0.378174
1535252460895358,-0.618896,-0.135681,0.669861,0.387146
1535252460912444,-0.616455,-0.146057,0.664429,0.396484
1535252460934962,-0.614136,-0.155945,0.658508,0.406067
1535252460955612,-0.611633,-0.16626,0.6521,0.415955
1535252460971651,-0.608887,-0.176575,0.64563,0.425659
1535252460994587,-0.606018,-0.187561,0.639282,0.434631
1535252461015668,-0.603027,-0.198914,0.632629,0.443298
1535252461039707,-0.599243,-0.210876,0.625671,0.452759
1535252461054747,-0.595154,-0.222717,0.618164,0.462646
1535252461075804,-0.590698,-0.234192,0.610962,0.472168
1535252461091927,-0.585999,-0.246582,0.604004,0.480591
1535252461114908,-0.580627,-0.259705,0.596863,0.489075
1535252461135964,-0.574646,-0.272705,0.589661,0.497681
1535252461151005,-0.568359,-0.284851,0.58313,0.505737
1535252461175069,-0.561768,-0.29718,0.57666,0.513428
1535252461196157,-0.554504,-0.308838,0.570435,0.52124
1535252461218218,-0.548035,-0.320374,0.564697,0.527344
1535252461234262,-0.542908,-0.332458,0.55896,0.531311
1535252461255319,-0.538147,-0.344727,0.552795,0.534729
1535252461271644,-0.532715,-0.355225,0.54657,0.539673
1535252461294390,-0.5271,-0.363892,0.541077,0.544922
1535252461317450,-0.522278,-0.37146,0.536255,0.549255
1535252461331590,-0.517456,-0.378479,0.531372,0.553772
1535252461354546,-0.512085,-0.384583,0.526794,0.558838
1535252461377607,-0.506775,-0.389832,0.523315,0.563354
1535252461391644,-0.502441,-0.394958,0.519897,0.566772
1535252461414708,-0.498108,-0.400208,0.515869,0.570618
1535252461436801,-0.493286,-0.40509,0.511841,0.574951
1535252461451805,-0.488953,-0.409668,0.508728,0.578125
1535252461474866,-0.486328,-0.414673,0.505493,0.579651
1535252461496926,-0.483521,-0.41925,0.501831,0.581848
1535252461517988,-0.479431,-0.42218,0.499207,0.585449
1535252461535026,-0.475525,-0.424377,0.497437,0.588501
1535252461563213,-0.473206,-0.427307,0.495117,0.59021
1535252461578143,-0.471191,-0.430054,0.492798,0.591736
1535252461594242,-0.468567,-0.43158,0.491394,0.593872
1535252461617246,-0.46698,-0.433044,0.490112,0.595154
1535252461645321,-0.466675,-0.434204,0.488892,0.595581
1535252461654478,-0.466614,-0.434265,0.488403,0.595886
1535252461677406,-0.467163,-0.433655,0.488586,0.595825
1535252461691444,-0.468811,-0.432922,0.488892,0.594788
1535252461714504,-0.470825,-0.431396,0.489868,0.593506
1535252461737563,-0.4729,-0.42865,0.491699,0.592346
1535252461758622,-0.475891,-0.42511,0.494019,0.590515
1535252461774743,-0.479492,-0.421143,0.496765,0.588135
1535252461796755,-0.48291,-0.416321,0.500305,0.585815
1535252461817831,-0.486328,-0.41095,0.504211,0.583435
1535252461834823,-0.490173,-0.405518,0.508057,0.580688
1535252461864906,-0.494324,-0.399536,0.512146,0.577698
1535252461885999,-0.498535,-0.393127,0.516724,0.574402
1535252461894988,-0.502625,-0.386047,0.521851,0.570923
1535252461917045,-0.506897,-0.378723,0.527283,0.567078
1535252461938141,-0.510803,-0.371094,0.532959,0.563354
1535252461954184,-0.514465,-0.362976,0.53894,0.55957
1535252461977203,-0.518982,-0.354675,0.545105,0.554688
1535252461998314,-0.524292,-0.346497,0.550903,0.549133
1535252462014308,-0.529602,-0.337524,0.556702,0.543762
1535252462037369,-0.534912,-0.328003,0.562805,0.538086
1535252462058598,-0.539978,-0.317993,0.569275,0.532166
1535252462073511,-0.544922,-0.307617,0.575989,0.52594
1535252462097527,-0.549683,-0.297058,0.582825,0.519531
1535252462118688,-0.553528,-0.286133,0.59021,0.513184
1535252462142644,-0.556335,-0.274963,0.598145,0.507019
1535252462157637,-0.559082,-0.263855,0.606018,0.500488
1535252462178739,-0.562195,-0.252747,0.613892,0.493103
1535252462193783,-0.565308,-0.241333,0.621826,0.485291
1535252462216988,-0.568054,-0.229675,0.629883,0.477295
1535252462237934,-0.571167,-0.218079,0.637512,0.468811
1535252462253939,-0.575012,-0.206726,0.644653,0.459351
1535252462277000,-0.578918,-0.195618,0.651733,0.44928
1535252462300061,-0.58197,-0.183899,0.659119,0.439331
1535252462314229,-0.58429,-0.172241,0.66626,0.430176
1535252462337165,-0.586731,-0.161133,0.672791,0.420837
1535252462359224,-0.589233,-0.149658,0.679443,0.410828
1535252462374530,-0.59198,-0.138916,0.685486,0.400391
1535252462397471,-0.594299,-0.12854,0.691467,0.390137
1535252462419854,-0.596069,-0.117981,0.69696,0.380737
1535252462442440,-0.597717,-0.107056,0.702271,0.371582
1535252462456516,-0.599121,-0.0964966,0.707764,0.361694
1535252462496584,-0.600098,-0.0866089,0.713623,0.350769
1535252462508658,-0.601318,-0.0782471,0.71875,0.340088
1535252462518859,-0.602295,-0.0702515,0.722961,0.330994
1535252462539699,-0.602295,-0.0614624,0.727051,0.323853
1535252462560883,-0.603027,-0.0512085,0.731018,0.315247
1535252462576885,-0.603821,-0.0432129,0.735046,0.305298
1535252462599924,-0.605469,-0.0354614,0.738281,0.295166
1535252462620918,-0.603088,-0.0302734,0.743408,0.287598
1535252462636957,-0.603088,-0.0228882,0.746216,0.280945
1535252462660020,-0.603027,-0.0159912,0.749146,0.273621
1535252462681107,-0.603394,-0.0101318,0.751587,0.266174
1535252462697119,-0.603699,-0.00463867,0.753601,0.260071
1535252462719247,-0.603516,0.00134277,0.755676,0.254395
1535252462741243,-0.603333,0.00689697,0.757935,0.247925
1535252462757288,-0.603394,0.0115967,0.759949,0.241272
1535252462779341,-0.603333,0.0160522,0.761719,0.235535
1535252462800500,-0.602661,0.0216064,0.764038,0.229309
1535252462817438,-0.601929,0.0262451,0.766541,0.222229
1535252462839496,-0.601563,0.0294189,0.768372,0.216431
1535252462860628,-0.600891,0.0338135,0.770142,0.211365
1535252462877599,-0.600403,0.0376587,0.771606,0.206604
1535252462899769,-0.600342,0.0404663,0.7724,0.203247
1535252462920749,-0.600708,0.0428467,0.772461,0.201416
1535252462936793,-0.601318,0.0443115,0.772095,0.200928
1535252462974897,-0.601929,0.0452881,0.771301,0.201538
1535252462987889,-0.602844,0.0454712,0.770142,0.203308
1535252462996915,-0.604004,0.0442505,0.768494,0.20636
1535252463019981,-0.605408,0.0419922,0.766296,0.210999
1535252463042038,-0.606873,0.0392456,0.763672,0.216736
1535252463056152,-0.608337,0.0359497,0.760925,0.222717
1535252463086221,-0.609619,0.0313721,0.758301,0.228821
1535252463101192,-0.610901,0.0254517,0.755188,0.236145
1535252463116233,-0.612427,0.0180054,0.751221,0.245422
1535252463139409,-0.613953,0.0109253,0.74646,0.256409
1535252463160971,-0.615234,0.00408936,0.741577,0.267395
1535252463176403,-0.616333,-0.00384521,0.736755,0.278015
1535252463200460,-0.617188,-0.0135498,0.731689,0.28894
1535252463228540,-0.617615,-0.0241699,0.726135,0.301086
1535252463260619,-0.617371,-0.0349731,0.720276,0.31427
1535252463290697,-0.616699,-0.0459595,0.714478,0.327209
1535252463292703,-0.615906,-0.0581665,0.708618,0.339172
1535252463305737,-0.61499,-0.0708618,0.702698,0.350647
1535252463319776,-0.613647,-0.0836792,0.696289,0.362732
1535252463342839,-0.611328,-0.0957642,0.689453,0.376526
1535252463362890,-0.608521,-0.107178,0.682251,0.390747
1535252463379937,-0.605774,-0.119019,0.67511,0.403809
1535252463402114,-0.603271,-0.132141,0.667908,0.415344
1535252463423095,-0.600708,-0.14624,0.660034,0.426819
1535252463440103,-0.596924,-0.159485,0.651794,0.439819
1535252463462392,-0.592346,-0.172791,0.643616,0.45282
1535252463483210,-0.587708,-0.187256,0.635498,0.464355
1535252463499316,-0.582764,-0.202637,0.627441,0.475037
1535252463522320,-0.576782,-0.217712,0.61908,0.486389
1535252463543484,-0.570374,-0.232422,0.610779,0.49762
1535252463559418,-0.56366,-0.24707,0.602478,0.508179
1535252463582476,-0.556763,-0.260681,0.59436,0.518433
1535252463603566,-0.548462,-0.273743,0.586121,0.529846
1535252463619582,-0.540161,-0.286316,0.577942,0.540588
1535252463641676,-0.533508,-0.299011,0.569641,0.549072
1535252463663692,-0.52832,-0.312012,0.561157,0.555603
1535252463679734,-0.524048,-0.324463,0.552979,0.560608
1535252463701793,-0.520081,-0.335022,0.545959,0.564941
1535252463722890,-0.516113,-0.34375,0.540405,0.568665
1535252463739894,-0.511719,-0.351074,0.535828,0.57251
1535252463761950,-0.506653,-0.35675,0.532532,0.576599
1535252463783183,-0.502197,-0.361633,0.530029,0.579712
1535252463807119,-0.499695,-0.366333,0.527527,0.581177
1535252463822111,-0.498352,-0.370789,0.524597,0.582214
1535252463844329,-0.496582,-0.374146,0.521729,0.584106
1535252463859210,-0.494507,-0.377197,0.519348,0.58606
1535252463882269,-0.493225,-0.38092,0.51709,0.586731
1535252463903325,-0.492432,-0.384766,0.514465,0.587158
1535252463919368,-0.490845,-0.387756,0.511963,0.588745
1535252463942430,-0.488159,-0.389893,0.510071,0.591187
1535252463963490,-0.485657,-0.39209,0.508606,0.593079
1535252463978529,-0.484375,-0.394714,0.507141,0.593628
1535252464002593,-0.483704,-0.397217,0.505188,0.594116
1535252464023655,-0.482788,-0.399109,0.503418,0.595154
1535252464038696,-0.481628,-0.400208,0.50238,0.596252
1535252464062800,-0.48053,-0.401611,0.501343,0.597046
1535252464082804,-0.47937,-0.403687,0.499756,0.5979
1535252464106869,-0.477722,-0.405457,0.498169,0.599365
1535252464121908,-0.476013,-0.407043,0.496643,0.600891
1535252464143040,-0.474915,-0.409241,0.494934,0.601685
1535252464160074,-0.473999,-0.411682,0.493042,0.602295
1535252464182068,-0.472778,-0.413635,0.491333,0.603333
1535252464205140,-0.47168,-0.415222,0.490051,0.604126
1535252464219216,-0.471191,-0.416931,0.48877,0.60437
1535252464242490,-0.471191,-0.418701,0.487427,0.604187
1535252464264290,-0.470398,-0.419922,0.486389,0.604797
1535252464279328,-0.470032,-0.420959,0.485352,0.605225
1535252464302388,-0.470642,-0.422302,0.484192,0.604736
1535252464324689,-0.471375,-0.423462,0.483337,0.604004
1535252464339616,-0.471619,-0.424072,0.483215,0.603577
1535252464362550,-0.471619,-0.424316,0.483521,0.603149
1535252464384610,-0.471985,-0.423828,0.484436,0.602417
1535252464398652,-0.473328,-0.422302,0.486206,0.600952
1535252464421753,-0.475525,-0.419861,0.488708,0.598938
1535252464444768,-0.478027,-0.41626,0.492065,0.596741
1535252464465865,-0.480835,-0.411926,0.49585,0.594299
1535252464481867,-0.484436,-0.407166,0.499817,0.59137
1535252464505108,-0.488403,-0.401428,0.504333,0.588196
1535252464525996,-0.492065,-0.394775,0.509521,0.585144
1535252464542030,-0.49585,-0.387756,0.514771,0.582031
1535252464565088,-0.499878,-0.380432,0.520081,0.578674
1535252464586148,-0.503967,-0.372925,0.525391,0.575256
1535252464602391,-0.508789,-0.365051,0.530884,0.570984
1535252464624244,-0.513855,-0.356995,0.536743,0.566101
1535252464645303,-0.518616,-0.348572,0.542725,0.561218
1535252464662350,-0.523132,-0.339661,0.548828,0.55658
1535252464684452,-0.52771,-0.330566,0.555054,0.551514
1535252464706473,-0.532471,-0.321594,0.561218,0.545959
1535252464722509,-0.537659,-0.312439,0.5672,0.539978
1535252464745141,-0.54248,-0.30304,0.573059,0.534302
1535252464767628,-0.546936,-0.293518,0.578979,0.528687
1535252464782668,-0.551819,-0.283813,0.584839,0.5224
1535252464804830,-0.557129,-0.274475,0.590515,0.51532
1535252464825823,-0.562439,-0.264954,0.596191,0.507935
1535252464841873,-0.567505,-0.255127,0.602051,0.500366
1535252464864886,-0.572449,-0.244629,0.608032,0.492737
1535252464886050,-0.577271,-0.233826,0.614319,0.484436
1535252464901987,-0.582397,-0.222839,0.620544,0.475464
1535252464925056,-0.587158,-0.21167,0.626526,0.466797
1535252464946100,-0.59137,-0.200317,0.632263,0.458679
1535252464961242,-0.595337,-0.188965,0.638367,0.449829
1535252464984202,-0.598877,-0.178345,0.64502,0.43988
1535252465007281,-0.601868,-0.168396,0.651611,0.429871
1535252465021313,-0.603699,-0.157349,0.658386,0.421082
1535252465044758,-0.604858,-0.145813,0.665833,0.411743
1535252465065422,-0.606018,-0.136108,0.673096,0.401489
1535252465081464,-0.606995,-0.127136,0.680176,0.39093
1535252465104525,-0.607666,-0.117615,0.686646,0.381348
1535252465127638,-0.608276,-0.107666,0.692566,0.372375
1535252465141624,-0.60907,-0.0979004,0.698425,0.362854
1535252465165685,-0.609924,-0.0883789,0.704346,0.352234
1535252465192757,-0.610901,-0.0792847,0.709961,0.341187
1535252465201781,-0.611816,-0.0699463,0.715088,0.33075
1535252465239881,-0.611938,-0.0603027,0.720215,0.321289
1535252465246901,-0.611084,-0.0504761,0.726196,0.310974
1535252465268960,-0.611816,-0.0401001,0.730652,0.300293
1535252465269961,-0.610352,-0.0322266,0.73584,0.291504
1535252465290042,-0.613098,-0.0210571,0.73761,0.282166
1535252465312074,-0.611816,-0.0125732,0.742004,0.27356
1535252465330121,-0.611511,-0.0045166,0.745544,0.264832
1535252465350175,-0.610718,0.00311279,0.749084,0.256592
1535252465380255,-0.609985,0.0098877,0.752258,0.248779
1535252465390281,-0.609009,0.0163574,0.75531,0.241577
1535252465410334,-0.608215,0.0217896,0.757813,0.235168
1535252465440416,-0.607544,0.0271606,0.759949,0.229309
1535252465457459,-0.606628,0.0325317,0.76239,0.222961
1535252465469491,-0.605774,0.0367432,0.764771,0.216309
1535252465492590,-0.605103,0.0400391,0.766602,0.211121
1535252465514612,-0.604553,0.043335,0.768066,0.206604
1535252465529734,-0.604126,0.0471191,0.76947,0.20166
1535252465552778,-0.604065,0.0493774,0.770508,0.197327
1535252465574773,-0.604492,0.0511475,0.770752,0.194458
1535252465589866,-0.605164,0.0533447,0.770569,0.192688
1535252465612885,-0.605957,0.0548096,0.770142,0.191467
1535252465634982,-0.606812,0.0552979,0.769531,0.191101
1535252465650025,-0.60791,0.0549927,0.768433,0.1922
1535252465675078,-0.608643,0.0544434,0.767212,0.194946
1535252465695265,-0.609314,0.0532227,0.765869,0.198364
1535252465726213,-0.610107,0.0509644,0.764282,0.202515
1535252465732195,-0.610718,0.0482178,0.762695,0.207153
1535252465755290,-0.611389,0.0444946,0.761047,0.212158
1535252465770294,-0.612244,0.039856,0.758972,0.217896
1535252465792381,-0.613525,0.0338745,0.756104,0.22522
1535252465815413,-0.615356,0.0253906,0.752136,0.234436
1535252465830455,-0.616943,0.0158081,0.747742,0.244934
1535252465852516,-0.618408,0.0057373,0.742554,0.25708
1535252465874608,-0.619324,-0.0055542,0.737122,0.270203
1535252465891617,-0.619629,-0.0183716,0.731323,0.284363
1535252465912674,-0.619202,-0.0317383,0.725281,0.299255
1535252465934768,-0.618164,-0.0458984,0.719116,0.314148
1535252465957829,-0.616638,-0.0601196,0.712769,0.328735
1535252465972834,-0.614685,-0.0744019,0.706848,0.342102
1535252465994960,-0.612854,-0.0887451,0.700989,0.353638
1535252466010128,-0.610962,-0.102478,0.694763,0.365295
1535252466032997,-0.608643,-0.11499,0.687866,0.378357
1535252466055086,-0.605469,-0.126648,0.68042,0.392883
1535252466077146,-0.601501,-0.137878,0.672729,0.408142
1535252466092155,-0.597595,-0.150391,0.665466,0.421204
1535252466115210,-0.59491,-0.165649,0.658386,0.430359
1535252466130257,-0.592285,-0.181091,0.650879,0.438965
1535252466152346,-0.588562,-0.194153,0.6427,0.450317
1535252466175410,-0.583557,-0.204834,0.635132,0.462708
1535252466190486,-0.579163,-0.216187,0.628113,0.472534
1535252466212578,-0.575989,-0.229065,0.620728,0.480042
1535252466236544,-0.572327,-0.242371,0.612732,0.488098
1535252466249604,-0.567139,-0.253784,0.604797,0.498169
1535252466272700,-0.561462,-0.264954,0.597534,0.507446
1535252466294726,-0.556641,-0.276917,0.590576,0.514465
1535252466309735,-0.551331,-0.289124,0.583496,0.521484
1535252466332792,-0.5448,-0.300293,0.576721,0.529541
1535252466363947,-0.538452,-0.310669,0.570374,0.536926
1535252466369979,-0.532654,-0.320984,0.564026,0.543213
1535252466392951,-0.526733,-0.331055,0.5578,0.549377
1535252466415010,-0.521301,-0.340637,0.55188,0.554626
1535252466430049,-0.516846,-0.349854,0.546143,0.558716
1535252466452145,-0.512451,-0.358398,0.540771,0.562622
1535252466475204,-0.507507,-0.366028,0.53595,0.566772
1535252466490256,-0.502625,-0.372864,0.531555,0.570801
1535252466512303,-0.498474,-0.379395,0.527344,0.574036
1535252466535365,-0.49469,-0.385437,0.523376,0.576904
1535252466557423,-0.490784,-0.390564,0.519714,0.580078
1535252466572434,-0.487488,-0.395447,0.516296,0.582642
1535252466595542,-0.485474,-0.400085,0.513062,0.583923
1535252466609525,-0.483582,-0.403931,0.510071,0.58551
1535252466632588,-0.481079,-0.406555,0.507751,0.587769
1535252466663805,-0.47876,-0.408691,0.505981,0.589661
1535252466671693,-0.477417,-0.41095,0.504333,0.590637
1535252466692852,-0.476379,-0.412659,0.503052,0.59137
1535252466714841,-0.475281,-0.413635,0.502319,0.592163
1535252466731852,-0.47467,-0.414185,0.501953,0.592651
1535252466752957,-0.474731,-0.414001,0.501892,0.592712
1535252466769972,-0.475159,-0.413269,0.502258,0.592651
1535252466791019,-0.475647,-0.41217,0.50293,0.592407
1535252466813079,-0.476013,-0.410828,0.503723,0.592346
1535252466835129,-0.47644,-0.409363,0.504456,0.592407
1535252466860195,-0.476807,-0.407654,0.505188,0.592712
1535252466875265,-0.476929,-0.405701,0.506042,0.59314
1535252466890273,-0.476868,-0.403809,0.506836,0.593872
1535252466911328,-0.476624,-0.40155,0.50769,0.594788
1535252466932384,-0.476624,-0.399536,0.508667,0.595398
1535252466950433,-0.477112,-0.397888,0.509399,0.595459
1535252466971491,-0.4776,-0.396851,0.509583,0.595581
1535252466992586,-0.477356,-0.395447,0.510071,0.596313
1535252467010598,-0.476318,-0.393738,0.511292,0.597168
1535252467032652,-0.475159,-0.391785,0.513123,0.597839
1535252467052742,-0.474243,-0.390076,0.514771,0.598328
1535252467070753,-0.473206,-0.388306,0.516052,0.599182
1535252467092815,-0.470703,-0.38501,0.518433,0.601196
1535252467112907,-0.467529,-0.379883,0.522278,0.603577
1535252467134962,-0.464539,-0.374878,0.525879,0.605835
1535252467160412,-0.461182,-0.369873,0.52887,0.608948
1535252467172059,-0.457642,-0.364136,0.531494,0.612732
1535252467195126,-0.455811,-0.357117,0.534363,0.615784
1535252467213133,-0.454956,-0.35144,0.53656,0.617737
1535252467232183,-0.453308,-0.347168,0.53717,0.62085
1535252467255281,-0.449829,-0.341736,0.537476,0.626099
1535252467273292,-0.444031,-0.334717,0.538635,0.632935
1535252467292443,-0.438477,-0.326294,0.540405,0.639648
1535252467315406,-0.433777,-0.318481,0.541809,0.64563
1535252467332449,-0.428162,-0.311523,0.542297,0.652283
1535252467352613,-0.420898,-0.303894,0.543213,0.659851
1535252467375599,-0.411011,-0.294617,0.545227,0.668579
1535252467392614,-0.398865,-0.284424,0.548767,0.677368
1535252467415676,-0.38446,-0.275269,0.552673,0.686279
1535252467434724,-0.366455,-0.266296,0.555908,0.696899
1535252467452772,-0.343445,-0.255249,0.56012,0.70929
1535252467472825,-0.31781,-0.24408,0.564819,0.721375
1535252467494882,-0.293274,-0.236084,0.567566,0.732178
1535252467512930,-0.27063,-0.230896,0.568787,0.741516
1535252467534103,-0.246582,-0.225037,0.57074,0.750183
1535252467555044,-0.221191,-0.218567,0.57312,0.758118
1535252467573241,-0.198364,-0.21405,0.574524,0.764648
1535252467592214,-0.176147,-0.2099,0.575012,0.770813
1535252467615203,-0.153687,-0.2052,0.576172,0.776062
1535252467633252,-0.13092,-0.201721,0.577209,0.780334
1535252467654307,-0.109009,-0.198853,0.576599,0.784851
1535252467675405,-0.0882568,-0.195557,0.575806,0.788879
1535252467693411,-0.0665283,-0.191467,0.576843,0.79126
1535252467714471,-0.0458984,-0.187927,0.577209,0.793335
1535252467735522,-0.0287476,-0.18512,0.576782,0.795105
1535252467752570,-0.0137329,-0.183777,0.576477,0.796021
1535252467773668,-0.000305176,-0.184265,0.576111,0.796326
1535252467795694,0.00915527,-0.185791,0.575073,0.796631
1535252467812896,0.0159912,-0.187988,0.574219,0.796631
1535252467834273,0.0214844,-0.190796,0.573608,0.796265
1535252467854966,0.0244141,-0.193176,0.572083,0.796692
1535252467873231,0.0248413,-0.195251,0.570801,0.797119
1535252467894057,0.0236206,-0.197021,0.56958,0.797546
1535252467915140,0.0200806,-0.199463,0.568359,0.797913
1535252467933048,0.0142822,-0.203918,0.566284,0.798401
1535252467954435,0.00897217,-0.208984,0.563599,0.799072
1535252467975259,0.0055542,-0.212036,0.56134,0.799927
1535252467993213,0.00250244,-0.213684,0.559448,0.800781
1535252468015735,0.000244141,-0.213806,0.557251,0.802307
1535252468035418,-0.00402832,-0.211731,0.556396,0.803406
1535252468053372,-0.0090332,-0.209595,0.556885,0.803589
1535252468075854,-0.0123291,-0.208984,0.556824,0.803772
1535252468095061,-0.0131226,-0.208801,0.556152,0.80426
1535252468112642,-0.0140991,-0.207886,0.55542,0.804993
1535252468135587,-0.0164795,-0.207031,0.555176,0.805359
1535252468154715,-0.0187378,-0.207275,0.554932,0.80542
1535252468171732,-0.019165,-0.207031,0.554871,0.805481
1535252468195749,-0.0185547,-0.205811,0.555237,0.805542
1535252468214805,-0.0184326,-0.204834,0.55542,0.805664
1535252468232849,-0.0194092,-0.204468,0.55542,0.805786
1535252468256098,-0.020874,-0.203308,0.555542,0.805908
1535252468275960,-0.0237427,-0.202515,0.555603,0.805969
1535252468292005,-0.0239258,-0.201233,0.556152,0.805969
1535252468314059,-0.0216675,-0.199219,0.556946,0.805969
1535252468336119,-0.019104,-0.197449,0.557922,0.805786
1535252468352224,-0.0174561,-0.196228,0.558411,0.805786
1535252468374219,-0.0180664,-0.197144,0.558167,0.805725
1535252468395364,-0.0193481,-0.198181,0.557983,0.805542
1535252468412326,-0.0192261,-0.198364,0.558105,0.80542
1535252468434381,-0.0183716,-0.19812,0.558411,0.805298
1535252468455442,-0.0169678,-0.197021,0.558777,0.805359
1535252468472483,-0.0165405,-0.196533,0.558411,0.805725
1535252468502563,-0.0175781,-0.196838,0.558167,0.805786
1535252468515598,-0.0181885,-0.19696,0.558105,0.805786
1535252468532642,-0.0183105,-0.196533,0.558044,0.805908
1535252468554732,-0.0181274,-0.195557,0.55835,0.80603
1535252468575822,-0.0178833,-0.194458,0.558533,0.806091
1535252468591836,-0.0177002,-0.193665,0.558533,0.806335
1535252468614864,-0.0176392,-0.193359,0.558594,0.806335
1535252468635960,-0.0172119,-0.19281,0.558655,0.806458
1535252468651965,-0.0172119,-0.19281,0.558655,0.806458
1535252468675028,-0.0172119,-0.19281,0.558594,0.806458
1535252468696080,-0.0172119,-0.19281,0.558655,0.806458
1535252468712391,-0.0172119,-0.192871,0.558716,0.806396
1535252468734181,-0.0166016,-0.192261,0.558838,0.806458
1535252468755235,-0.0163574,-0.191895,0.558899,0.806519
1535252468778357,-0.0168457,-0.192261,0.558777,0.806458
1535252468794439,-0.0167847,-0.192749,0.558777,0.806396
1535252468817407,-0.0162964,-0.192688,0.558655,0.806519
1535252468832443,-0.0162964,-0.192688,0.558655,0.806519
1535252468854536,-0.0162964,-0.192688,0.558655,0.806519
1535252468875659,-0.0162964,-0.192688,0.558655,0.806519
1535252468892606,-0.0164795,-0.19281,0.558533,0.80658
1535252468914662,-0.0164795,-0.192871,0.558533,0.80658
1535252468936718,-0.0165405,-0.192871,0.558533,0.806519
1535252468951758,-0.0164185,-0.19281,0.558472,0.80658
1535252468974824,-0.0164795,-0.192688,0.55835,0.806702
1535252468996879,-0.0165405,-0.192383,0.55835,0.806763
1535252469010954,-0.0164185,-0.192078,0.55835,0.806885
1535252469034982,-0.0164795,-0.192017,0.558289,0.806885
1535252469057055,-0.0168457,-0.192139,0.558411,0.806824
1535252469072080,-0.017334,-0.191528,0.558533,0.806824
1535252469094230,-0.0183716,-0.190979,0.558655,0.806824
1535252469117197,-0.019104,-0.190857,0.558411,0.807068
1535252469131500,-0.019043,-0.190857,0.558105,0.807251
1535252469154349,-0.0186768,-0.190918,0.557922,0.807373
1535252469177360,-0.0187378,-0.190857,0.557922,0.807373
