timestamp,roll,pitch,yaw
1535253141023645,-0.308286,-0.186846,1.36123
1535253141046206,-0.308286,-0.186846,1.36123
1535253141062249,-0.308286,-0.186846,1.36123
1535253141083805,-0.308286,-0.186846,1.36123
1535253141107404,-0.308197,-0.186942,1.36124
1535253141122410,-0.308197,-0.186942,1.36124
1535253141143464,-0.308197,-0.186942,1.36124
1535253141174547,-0.308101,-0.187018,1.36124
1535253141213692,-0.308197,-0.186942,1.36124
1535253141214654,-0.308197,-0.186942,1.36124
1535253141226686,-0.308016,-0.186922,1.36119
1535253141242741,-0.308016,-0.186922,1.36119
1535253141264788,-0.308016,-0.186922,1.36119
1535253141288350,-0.308016,-0.186922,1.36119
1535253141323492,-0.308016,-0.186922,1.36119
1535253141333470,-0.307932,-0.186825,1.36115
1535253141346505,-0.307932,-0.186825,1.36115
1535253141369064,-0.307932,-0.186825,1.36115
1535253141384104,-0.307932,-0.186825,1.36115
1535253141408168,-0.307836,-0.186901,1.36115
1535253141428723,-0.307932,-0.186825,1.36115
1535253141445267,-0.307836,-0.186901,1.36115
1535253141467827,-0.307836,-0.186901,1.36115
1535253141482867,-0.307836,-0.186901,1.36115
1535253141505474,-0.307836,-0.186901,1.36115
1535253141528219,-0.307932,-0.186825,1.36115
1535253141549043,-0.307836,-0.186901,1.36115
1535253141565587,-0.307751,-0.186805,1.36111
1535253141588165,-0.307751,-0.186805,1.36111
1535253141602185,-0.307751,-0.186805,1.36111
1535253141625747,-0.307751,-0.186805,1.36111
1535253141647908,-0.307751,-0.186805,1.36111
1535253141669280,-0.308286,-0.186846,1.36123
1535253141685456,-0.308286,-0.186846,1.36123
1535253141713983,-0.308286,-0.186846,1.36123
1535253141736625,-0.308202,-0.18675,1.36119
1535253141759102,-0.308286,-0.186846,1.36123
1535253141775647,-0.308286,-0.186846,1.36123
1535253141789182,-0.308286,-0.186846,1.36123
1535253141805726,-0.308202,-0.18675,1.36119
1535253141827786,-0.308202,-0.18675,1.36119
1535253141849343,-0.308202,-0.18675,1.36119
1535253141865472,-0.308286,-0.186846,1.36123
1535253141887946,-0.308286,-0.186846,1.36123
1535253141909001,-0.308202,-0.18675,1.36119
1535253141925545,-0.308202,-0.18675,1.36119
1535253141948106,-0.308221,-0.186742,1.36135
1535253141969161,-0.308221,-0.186742,1.36135
1535253141985705,-0.308221,-0.186742,1.36135
1535253142007763,-0.308221,-0.186742,1.36135
1535253142028821,-0.308137,-0.186646,1.36131
1535253142045365,-0.308221,-0.186742,1.36135
1535253142067924,-0.308137,-0.186646,1.36131
1535253142096500,-0.308137,-0.186646,1.36131
1535253142105524,-0.308137,-0.186646,1.36131
1535253142128084,-0.308137,-0.186646,1.36131
1535253142150644,-0.308221,-0.186742,1.36135
1535253142165684,-0.308137,-0.186646,1.36131
1535253142188245,-0.308137,-0.186646,1.36131
1535253142210805,-0.308137,-0.186646,1.36131
1535253142225462,-0.308137,-0.186646,1.36131
1535253142247902,-0.308221,-0.186742,1.36135
1535253142270463,-0.308137,-0.186646,1.36131
1535253142293022,-0.308137,-0.186646,1.36131
1535253142314079,-0.308137,-0.186646,1.36131
1535253142330623,-0.308137,-0.186646,1.36131
1535253142353184,-0.308041,-0.186722,1.36131
1535253142374239,-0.308137,-0.186646,1.36131
1535253142390650,-0.308137,-0.186646,1.36131
1535253142412843,-0.308137,-0.186646,1.36131
1535253142433899,-0.308137,-0.186646,1.36131
1535253142450441,-0.308137,-0.186646,1.36131
1535253142473001,-0.308137,-0.186646,1.36131
1535253142494152,-0.308041,-0.186722,1.36131
1535253142510604,-0.308041,-0.186722,1.36131
1535253142533190,-0.308041,-0.186722,1.36131
1535253142554218,-0.308041,-0.186722,1.36131
1535253142570761,-0.308041,-0.186722,1.36131
1535253142593321,-0.308041,-0.186722,1.36131
1535253142615380,-0.308041,-0.186722,1.36131
1535253142630968,-0.308041,-0.186722,1.36131
1535253142653514,-0.308041,-0.186722,1.36131
1535253142675542,-0.308041,-0.186722,1.36131
1535253142690583,-0.308048,-0.186742,1.36132
1535253142713142,-0.308048,-0.186742,1.36132
1535253142735704,-0.308048,-0.186742,1.36132
1535253142749740,-0.308048,-0.186742,1.36132
1535253142773416,-0.308048,-0.186742,1.36132
1535253142795360,-0.308048,-0.186742,1.36132
1535253142809958,-0.307867,-0.186722,1.36128
1535253142833219,-0.307963,-0.186646,1.36128
1535253142855521,-0.307867,-0.186722,1.36128
1535253142870563,-0.307867,-0.186722,1.36128
1535253142893122,-0.307867,-0.186722,1.36128
1535253142915680,-0.307963,-0.186646,1.36128
1535253142929717,-0.307963,-0.186646,1.36128
1535253142953280,-0.307963,-0.186646,1.36128
1535253142975367,-0.307867,-0.186722,1.36128
1535253142989898,-0.307867,-0.186722,1.36128
1535253143012958,-0.307867,-0.186722,1.36128
1535253143035519,-0.307867,-0.186722,1.36128
1535253143050058,-0.307782,-0.186626,1.36123
1535253143073118,-0.307782,-0.186626,1.36123
1535253143095678,-0.307782,-0.186626,1.36123
1535253143124254,-0.307782,-0.186626,1.36123
1535253143133277,-0.307782,-0.186626,1.36123
1535253143155336,-0.307782,-0.186626,1.36123
1535253143176738,-0.307782,-0.186626,1.36123
1535253143192982,-0.307602,-0.186605,1.36119
1535253143215540,-0.307602,-0.186605,1.36119
1535253143236640,-0.307602,-0.186605,1.36119
1535253143253141,-0.307602,-0.186605,1.36119
1535253143275812,-0.307602,-0.186605,1.36119
1535253143296757,-0.307602,-0.186605,1.36119
1535253143313303,-0.307602,-0.186605,1.36119
1535253143335360,-0.307602,-0.186605,1.36119
1535253143356917,-0.307506,-0.186681,1.36118
1535253143380482,-0.307506,-0.186681,1.36118
1535253143403042,-0.307421,-0.186585,1.36114
1535253143425610,-0.307421,-0.186585,1.36114
1535253143433122,-0.307421,-0.186585,1.36114
1535253143455682,-0.307421,-0.186585,1.36114
1535253143476736,-0.307325,-0.18666,1.36114
1535253143493341,-0.307325,-0.18666,1.36114
1535253143515344,-0.307325,-0.18666,1.36114
1535253143536899,-0.307325,-0.18666,1.36114
1535253143552939,-0.307332,-0.186681,1.36115
1535253143575498,-0.307247,-0.186585,1.36111
1535253143598088,-0.307247,-0.186585,1.36111
1535253143613099,-0.307247,-0.186585,1.36111
1535253143635661,-0.307247,-0.186585,1.36111
1535253143658318,-0.307247,-0.186585,1.36111
1535253143680829,-0.307247,-0.186585,1.36111
1535253143695321,-0.307247,-0.186585,1.36111
1535253143718379,-0.307067,-0.186564,1.36106
1535253143740438,-0.307067,-0.186564,1.36106
1535253143762997,-0.307067,-0.186564,1.36106
1535253143778159,-0.307067,-0.186564,1.36106
1535253143792683,-0.307067,-0.186564,1.36106
1535253143815643,-0.306971,-0.18664,1.36106
1535253143838304,-0.307067,-0.186564,1.36106
1535253143859296,-0.307067,-0.186564,1.36106
1535253143875802,-0.307067,-0.186564,1.36106
1535253143898360,-0.307067,-0.186564,1.36106
1535253143912714,-0.306971,-0.18664,1.36106
1535253143935467,-0.306971,-0.18664,1.36106
1535253143958017,-0.306971,-0.18664,1.36106
1535253143979075,-0.306886,-0.186544,1.36102
1535253143995617,-0.306886,-0.186544,1.36102
1535253144018176,-0.306886,-0.186544,1.36102
1535253144039280,-0.306886,-0.186544,1.36102
1535253144055279,-0.306886,-0.186544,1.36102
1535253144078336,-0.306886,-0.186544,1.36102
1535253144098895,-0.30679,-0.186619,1.36101
1535253144115435,-0.306886,-0.186544,1.36102
1535253144138056,-0.306705,-0.186523,1.36097
1535253144159166,-0.306705,-0.186523,1.36097
1535253144175595,-0.306705,-0.186523,1.36097
1535253144198160,-0.306705,-0.186523,1.36097
1535253144219261,-0.306705,-0.186523,1.36097
1535253144235756,-0.306705,-0.186523,1.36097
1535253144258363,-0.306705,-0.186523,1.36097
1535253144278871,-0.306705,-0.186523,1.36097
1535253144295414,-0.306705,-0.186523,1.36097
1535253144317974,-0.306705,-0.186523,1.36097
1535253144339151,-0.306705,-0.186523,1.36097
1535253144355576,-0.306621,-0.186427,1.36093
1535253144378135,-0.306621,-0.186427,1.36093
1535253144399193,-0.306621,-0.186427,1.36093
1535253144415734,-0.306621,-0.186427,1.36093
1535253144438294,-0.306621,-0.186427,1.36093
1535253144459349,-0.306621,-0.186427,1.36093
1535253144475678,-0.306621,-0.186427,1.36093
1535253144497953,-0.306532,-0.186523,1.36094
1535253144520514,-0.306532,-0.186523,1.36094
1535253144535694,-0.306532,-0.186523,1.36094
1535253144558161,-0.306532,-0.186523,1.36094
1535253144580721,-0.306532,-0.186523,1.36094
1535253144595759,-0.306447,-0.186427,1.3609
1535253144617909,-0.306447,-0.186427,1.3609
1535253144640533,-0.306447,-0.186427,1.3609
1535253144655012,-0.306532,-0.186523,1.36094
1535253144678071,-0.306447,-0.186427,1.3609
1535253144700634,-0.306447,-0.186427,1.3609
1535253144715171,-0.306447,-0.186427,1.3609
1535253144738242,-0.306447,-0.186427,1.3609
1535253144768309,-0.306532,-0.186523,1.36094
1535253144774827,-0.306532,-0.186523,1.36094
1535253144797888,-0.306532,-0.186523,1.36094
1535253144820457,-0.306532,-0.186523,1.36094
1535253144834986,-0.306532,-0.186523,1.36094
1535253144858052,-0.306532,-0.186523,1.36094
1535253144880610,-0.306532,-0.186523,1.36094
1535253144895148,-0.306532,-0.186523,1.36094
1535253144918213,-0.306532,-0.186523,1.36094
1535253144940790,-0.306532,-0.186523,1.36094
1535253144955055,-0.306532,-0.186523,1.36094
1535253144978186,-0.306532,-0.186523,1.36094
1535253145000431,-0.306447,-0.186427,1.3609
1535253145021561,-0.306532,-0.186523,1.36094
1535253145038027,-0.306628,-0.186448,1.36094
1535253145060706,-0.306532,-0.186523,1.36094
1535253145081643,-0.306532,-0.186523,1.36094
1535253145098186,-0.306532,-0.186523,1.36094
1535253145120785,-0.306447,-0.186427,1.3609
1535253145141923,-0.306532,-0.186523,1.36094
1535253145158356,-0.306628,-0.186448,1.36094
1535253145180457,-0.306543,-0.186352,1.3609
1535253145201977,-0.306543,-0.186352,1.3609
1535253145218008,-0.306893,-0.186564,1.36103
1535253145240619,-0.306873,-0.186572,1.36087
1535253145261705,-0.306873,-0.186572,1.36087
1535253145278239,-0.306809,-0.186468,1.36099
1535253145300824,-0.306809,-0.186468,1.36099
1535253145321900,-0.306809,-0.186468,1.36099
1535253145337897,-0.306809,-0.186468,1.36099
1535253145360464,-0.306809,-0.186468,1.36099
1535253145381516,-0.306809,-0.186468,1.36099
1535253145398069,-0.306809,-0.186468,1.36099
1535253145428134,-0.306724,-0.186372,1.36095
1535253145443319,-0.306724,-0.186372,1.36095
1535253145458215,-0.306724,-0.186372,1.36095
1535253145480375,-0.30682,-0.186297,1.36095
1535253145502833,-0.30682,-0.186297,1.36095
1535253145518150,-0.306724,-0.186372,1.36095
1535253145540434,-0.306724,-0.186372,1.36095
1535253145563056,-0.306724,-0.186372,1.36095
1535253145578033,-0.306724,-0.186372,1.36095
1535253145600596,-0.306724,-0.186372,1.36095
1535253145623155,-0.306724,-0.186372,1.36095
1535253145644316,-0.306724,-0.186372,1.36095
1535253145660755,-0.306724,-0.186372,1.36095
1535253145682811,-0.306724,-0.186372,1.36095
1535253145697480,-0.306724,-0.186372,1.36095
1535253145720412,-0.306639,-0.186276,1.36091
1535253145743489,-0.306639,-0.186276,1.36091
1535253145757515,-0.306639,-0.186276,1.36091
1535253145780574,-0.306639,-0.186276,1.36091
1535253145803309,-0.306639,-0.186276,1.36091
1535253145817672,-0.306639,-0.186276,1.36091
1535253145840734,-0.306639,-0.186276,1.36091
1535253145863320,-0.306639,-0.186276,1.36091
1535253145877431,-0.306639,-0.186276,1.36091
1535253145900418,-0.306639,-0.186276,1.36091
1535253145922978,-0.306639,-0.186276,1.36091
1535253145928492,-0.306639,-0.186276,1.36091
1535253145946039,-0.306555,-0.18618,1.36086
1535253145966095,-0.306555,-0.18618,1.36086
1535253145988656,-0.306459,-0.186255,1.36086
1535253146006702,-0.306459,-0.186255,1.36086
1535253146025753,-0.306459,-0.186255,1.36086
1535253146048315,-0.306459,-0.186255,1.36086
1535253146066359,-0.306555,-0.18618,1.36086
1535253146085911,-0.306459,-0.186255,1.36086
1535253146108575,-0.306459,-0.186255,1.36086
1535253146126633,-0.306459,-0.186255,1.36086
1535253146146207,-0.306374,-0.186159,1.36082
1535253146168652,-0.306374,-0.186159,1.36082
1535253146201314,-0.306374,-0.186159,1.36082
1535253146213771,-0.306374,-0.186159,1.36082
1535253146235833,-0.306374,-0.186159,1.36082
1535253146246545,-0.306374,-0.186159,1.36082
1535253146265909,-0.306374,-0.186159,1.36082
1535253146288470,-0.30629,-0.186063,1.36078
1535253146306637,-0.30629,-0.186063,1.36078
1535253146326183,-0.306374,-0.186159,1.36082
1535253146348633,-0.306194,-0.186139,1.36077
1535253146371249,-0.306194,-0.186139,1.36077
1535253146386231,-0.306605,-0.186025,1.36021
1535253146408792,-0.306711,-0.185348,1.3596
1535253146426339,-0.307945,-0.184907,1.35899
1535253146446010,-0.309416,-0.184324,1.35916
1535253146468953,-0.310292,-0.183227,1.36005
1535253146491009,-0.307862,-0.182102,1.36038
1535253146506146,-0.305839,-0.180271,1.35938
1535253146528695,-0.306614,-0.179189,1.35898
1535253146551692,-0.308732,-0.180802,1.3598
1535253146566232,-0.309096,-0.182459,1.35962
1535253146588288,-0.308065,-0.182721,1.3604
1535253146610854,-0.305938,-0.183437,1.36106
1535253146625953,-0.307948,-0.184621,1.36223
1535253146648448,-0.307037,-0.186508,1.36404
1535253146671044,-0.303611,-0.18898,1.36371
1535253146687553,-0.302994,-0.190172,1.36289
1535253146708609,-0.305864,-0.190611,1.36283
1535253146733675,-0.308809,-0.191319,1.36285
1535253146753229,-0.309949,-0.191238,1.36261
1535253146768266,-0.310045,-0.191162,1.36261
1535253146790863,-0.309188,-0.190587,1.36229
1535253146813431,-0.306816,-0.189935,1.36178
1535253146828467,-0.308042,-0.190094,1.36177
1535253146850987,-0.308578,-0.191076,1.36195
1535253146866027,-0.308493,-0.19098,1.3619
1535253146888589,-0.309731,-0.190967,1.36186
1535253146911147,-0.309912,-0.190988,1.36191
1535253146926187,-0.308606,-0.19061,1.3617
1535253146948746,-0.308425,-0.19059,1.36165
1535253146970809,-0.309142,-0.190651,1.36182
1535253146985884,-0.309729,-0.190824,1.36167
1535253147011417,-0.309729,-0.190824,1.36167
1535253147033973,-0.309645,-0.190728,1.36163
1535253147047515,-0.309645,-0.190728,1.36163
1535253147068604,-0.309645,-0.190728,1.36163
1535253147091165,-0.309645,-0.190728,1.36163
1535253147107169,-0.309214,-0.190776,1.36171
1535253147128727,-0.309129,-0.19068,1.36167
1535253147150789,-0.309044,-0.190583,1.36163
1535253147167328,-0.309811,-0.190634,1.36133
1535253147188387,-0.310345,-0.190532,1.36127
1535253147210990,-0.309965,-0.189843,1.36133
1535253147227490,-0.309357,-0.188736,1.36127
1535253147248545,-0.308887,-0.187858,1.36097
1535253147271144,-0.309659,-0.186919,1.36076
1535253147287651,-0.310622,-0.187248,1.36104
