timestamp,roll,pitch,yaw
1535264504799243,-1.34761,-0.0739793,1.33653
1535264504820772,-1.34791,-0.0740016,1.33696
1535264504843391,-1.34704,-0.0747719,1.33774
1535264504858600,-1.34752,-0.0748921,1.33893
1535264504882002,-1.34667,-0.0747756,1.34043
1535264504903506,-1.34436,-0.0747488,1.342
1535264504926053,-1.34532,-0.0738939,1.34391
1535264504970672,-1.34754,-0.0721582,1.34671
1535264504980198,-1.34552,-0.0719131,1.3493
1535264504988720,-1.3423,-0.0716913,1.3515
1535264504998746,-1.34326,-0.0708038,1.35376
1535264505015791,-1.34516,-0.069498,1.3559
1535264505032335,-1.34482,-0.06874,1.35722
1535264505058906,-1.34298,-0.0681634,1.35928
1535264505083472,-1.34094,-0.0682847,1.36232
1535264505095700,-1.34166,-0.06891,1.36433
1535264505114053,-1.34245,-0.0684876,1.36489
1535264505136612,-1.33971,-0.066982,1.36441
1535264505150650,-1.3355,-0.0646462,1.3633
1535264505173211,-1.33254,-0.0611297,1.36169
1535264505195935,-1.33143,-0.0581166,1.36015
1535264505210903,-1.33279,-0.0572592,1.35914
1535264505233373,-1.33411,-0.0576434,1.35856
1535264505255930,-1.33499,-0.0587058,1.35883
1535264505277988,-1.33674,-0.0607138,1.36021
1535264505293029,-1.33576,-0.0627124,1.36133
1535264505315589,-1.33282,-0.0642087,1.36252
1535264505330784,-1.33201,-0.0649793,1.36383
1535264505353277,-1.33186,-0.0660014,1.36532
1535264505375749,-1.3311,-0.0665541,1.36644
1535264505390789,-1.33085,-0.0677426,1.36724
1535264505413349,-1.33136,-0.068023,1.36833
1535264505435944,-1.33109,-0.0681628,1.36924
1535264505450949,-1.32972,-0.0679791,1.37036
1535264505473010,-1.32751,-0.0685689,1.37191
1535264505504592,-1.32574,-0.0691793,1.37321
1535264505510608,-1.32555,-0.069646,1.37407
1535264505533168,-1.32524,-0.0703018,1.37516
1535264505555764,-1.32404,-0.0710089,1.3763
1535264505570767,-1.32422,-0.0713816,1.37671
1535264505593339,-1.32478,-0.0713114,1.3768
1535264505615947,-1.32501,-0.0711985,1.37668
1535264505630987,-1.32402,-0.0715426,1.37627
1535264505653045,-1.3227,-0.0718699,1.3753
1535264505675615,-1.32228,-0.0719839,1.37452
1535264505690671,-1.32291,-0.0727186,1.37396
1535264505713231,-1.32353,-0.0736686,1.37372
1535264505735839,-1.32347,-0.074718,1.37316
1535264505753839,-1.32419,-0.0755322,1.37328
1535264505773391,-1.32427,-0.0755872,1.3736
1535264505795950,-1.32368,-0.0748204,1.37337
1535264505818010,-1.32325,-0.0731103,1.37275
1535264505833077,-1.32301,-0.0711206,1.37196
1535264505855609,-1.32332,-0.0689593,1.37067
1535264505870779,-1.32539,-0.0671359,1.36924
1535264505893209,-1.32642,-0.066034,1.36804
1535264505915957,-1.32639,-0.0653881,1.36732
1535264505930911,-1.32775,-0.0640686,1.36657
1535264505953391,-1.32976,-0.0629503,1.36599
1535264505975947,-1.3311,-0.0613701,1.36547
1535264505990547,-1.33138,-0.0596705,1.36506
1535264506013046,-1.33262,-0.0583071,1.36442
1535264506036125,-1.33486,-0.0568396,1.36431
1535264506050920,-1.33676,-0.0554073,1.36421
1535264506073207,-1.33975,-0.0542537,1.36389
1535264506095766,-1.34334,-0.0528996,1.36356
1535264506113814,-1.34669,-0.0515304,1.36312
1535264506134871,-1.35105,-0.0502208,1.36296
1535264506155926,-1.35662,-0.0492513,1.36234
1535264506179489,-1.36341,-0.0487182,1.36186
1535264506194528,-1.37062,-0.0473803,1.36143
1535264506215585,-1.37649,-0.046038,1.3611
1535264506238350,-1.38149,-0.0447171,1.36059
1535264506254690,-1.38559,-0.0436002,1.36002
1535264506278836,-1.38889,-0.0423075,1.3596
1535264506293795,-1.3915,-0.0408129,1.35991
1535264506314850,-1.39227,-0.0393978,1.3603
1535264506338411,-1.39237,-0.0383489,1.36027
1535264506353452,-1.39243,-0.0376229,1.36031
1535264506374671,-1.39245,-0.0371601,1.36056
1535264506395942,-1.39289,-0.0372222,1.36088
1535264506413612,-1.39299,-0.0375767,1.36063
1535264506434671,-1.39322,-0.0375899,1.36026
1535264506455724,-1.39405,-0.0373446,1.36001
1535264506473886,-1.39547,-0.0369218,1.35998
1535264506496331,-1.39592,-0.0368017,1.36019
1535264506515884,-1.39557,-0.0369448,1.36008
1535264506533932,-1.39614,-0.0369375,1.36006
1535264506555991,-1.39825,-0.0373599,1.36025
1535264506583062,-1.39925,-0.0377559,1.36006
1535264506593590,-1.399,-0.037862,1.36018
1535264506616818,-1.39991,-0.0376097,1.36024
1535264506635913,-1.39992,-0.0375496,1.36037
1535264506654252,-1.39911,-0.0367024,1.36027
1535264506676310,-1.39719,-0.0353348,1.36023
1535264506698872,-1.39477,-0.0332394,1.36042
1535264506713410,-1.39307,-0.0306644,1.36036
1535264506735969,-1.39229,-0.0273893,1.35989
1535264506755816,-1.39035,-0.0234064,1.35874
1535264506781111,-1.39039,-0.0184754,1.35761
1535264506796293,-1.39233,-0.0136429,1.35632
1535264506815701,-1.39464,-0.00961199,1.35516
1535264506833751,-1.39601,-0.00598387,1.35426
1535264506856315,-1.39632,-0.00356371,1.35367
1535264506875865,-1.39552,-0.000962645,1.35317
1535264506893925,-1.39621,0.00184161,1.35271
1535264506916481,-1.39792,0.00481864,1.3524
1535264506936020,-1.3983,0.00673058,1.35187
1535264506953569,-1.39844,0.00859918,1.3516
1535264506976126,-1.39859,0.0107584,1.35133
1535264506997222,-1.39815,0.0118516,1.35135
1535264507013727,-1.39774,0.0124373,1.35143
1535264507036288,-1.39756,0.0135866,1.35134
1535264507055842,-1.39703,0.0149941,1.35128
1535264507073887,-1.39684,0.0166947,1.35178
1535264507095946,-1.39705,0.0190213,1.35243
1535264507117001,-1.39591,0.0221338,1.35294
1535264507133575,-1.39366,0.0257656,1.35359
1535264507156108,-1.39298,0.0295055,1.35457
1535264507177163,-1.39345,0.0341801,1.35569
1535264507193706,-1.39333,0.0395844,1.3567
1535264507216267,-1.39222,0.0451041,1.35761
1535264507237897,-1.39034,0.0512427,1.35813
1535264507258380,-1.38818,0.0585194,1.35862
1535264507275929,-1.38603,0.0665945,1.35912
1535264507297516,-1.38541,0.0749411,1.35977
1535264507318039,-1.3853,0.0840026,1.35966
1535264507336086,-1.38489,0.0930493,1.35977
1535264507357188,-1.38372,0.102744,1.35976
1535264507378198,-1.38211,0.113253,1.35994
1535264507396246,-1.38024,0.123712,1.36003
1535264507418809,-1.37904,0.133962,1.36016
1535264507438477,-1.37991,0.144577,1.35986
1535264507456405,-1.38066,0.155296,1.35942
1535264507478998,-1.37965,0.165291,1.35895
1535264507499139,-1.37801,0.174949,1.35867
1535264507516067,-1.37666,0.184437,1.35828
1535264507538124,-1.37462,0.193859,1.35805
1535264507559209,-1.37158,0.202862,1.35806
1535264507575232,-1.36972,0.211715,1.35804
1535264507597786,-1.3692,0.220513,1.35787
1535264507619679,-1.36958,0.22979,1.35805
1535264507635202,-1.36924,0.239083,1.35834
1535264507657769,-1.3686,0.248869,1.35876
1535264507678923,-1.36804,0.259271,1.35884
1535264507695364,-1.36876,0.269993,1.35878
1535264507725541,-1.36896,0.281178,1.35877
1535264507739079,-1.36878,0.2923,1.35865
1535264507755525,-1.36785,0.303233,1.35925
1535264507778083,-1.36745,0.314742,1.36025
1535264507799176,-1.36619,0.326422,1.36115
1535264507815181,-1.3639,0.338067,1.36211
1535264507837741,-1.36058,0.350032,1.3633
1535264507858795,-1.35789,0.362109,1.36443
1535264507875341,-1.35657,0.374531,1.36547
1535264507897932,-1.35604,0.386593,1.36609
1535264507918979,-1.35451,0.398175,1.36621
1535264507943025,-1.35293,0.410112,1.36662
1535264507957560,-1.35232,0.422778,1.36806
1535264507979145,-1.35061,0.435522,1.36972
1535264508002678,-1.34825,0.447715,1.37062
1535264508017718,-1.34572,0.460181,1.37142
1535264508038800,-1.34421,0.473208,1.37316
1535264508055320,-1.34313,0.486199,1.37457
1535264508085400,-1.3417,0.498316,1.37532
1535264508098987,-1.33898,0.510055,1.37584
1535264508116037,-1.33684,0.522321,1.37668
1535264508138068,-1.33613,0.534541,1.37831
1535264508159097,-1.33464,0.545736,1.37918
1535264508175196,-1.33198,0.556867,1.38016
1535264508204215,-1.33073,0.568799,1.38088
1535264508218806,-1.33017,0.580653,1.38232
1535264508234812,-1.3289,0.59157,1.38342
1535264508257857,-1.32774,0.602607,1.38431
1535264508278966,-1.32717,0.614466,1.38533
1535264508294957,-1.32759,0.626673,1.38664
1535264508318061,-1.32704,0.63847,1.38792
1535264508339073,-1.32499,0.650277,1.38874
1535264508361680,-1.32297,0.662764,1.39009
1535264508377715,-1.32281,0.675139,1.3916
1535264508400237,-1.32178,0.687701,1.3939
1535264508414870,-1.3199,0.700034,1.39565
1535264508437838,-1.31725,0.712295,1.39733
1535264508460439,-1.31524,0.724677,1.39936
1535264508474936,-1.31386,0.737082,1.40151
1535264508498550,-1.3114,0.749076,1.40458
1535264508520608,-1.30877,0.760365,1.40822
1535264508534644,-1.30568,0.772049,1.4114
1535264508565380,-1.30253,0.784408,1.4141
1535264508580357,-1.30049,0.796753,1.41651
1535264508608843,-1.29917,0.808651,1.41806
1535264508617866,-1.29727,0.820335,1.41912
1535264508640426,-1.29682,0.832649,1.42014
1535264508661485,-1.2979,0.844394,1.42142
1535264508678127,-1.29848,0.856022,1.42242
1535264508700341,-1.29792,0.867711,1.42257
1535264508722750,-1.29783,0.879296,1.42271
1535264508737794,-1.29878,0.891554,1.42323
1535264508761853,-1.30034,0.903813,1.42304
1535264508781450,-1.30051,0.915699,1.42346
1535264508797582,-1.3014,0.926535,1.42335
1535264508820510,-1.3032,0.937305,1.42493
1535264508841568,-1.29988,0.945696,1.42938
1535264508858110,-1.30821,0.960384,1.4203
1535264508880168,-1.29995,0.968566,1.42869
1535264508901224,-1.30611,0.982177,1.42284
1535264508917769,-1.30736,0.993612,1.42237
1535264508940391,-1.30665,1.00538,1.42369
1535264508961384,-1.30567,1.01664,1.42502
1535264508977956,-1.30431,1.02801,1.42642
1535264509000488,-1.30358,1.03883,1.42682
1535264509021589,-1.30239,1.05035,1.42859
1535264509037086,-1.30122,1.06174,1.43057
1535264509060650,-1.29896,1.07349,1.4341
1535264509081204,-1.29662,1.08465,1.43734
1535264509097747,-1.2926,1.09606,1.44105
1535264509120308,-1.28818,1.10748,1.44588
1535264509148885,-1.2839,1.11929,1.45182
1535264509157909,-1.28021,1.13105,1.45655
1535264509180469,-1.27669,1.14228,1.46054
1535264509201523,-1.2744,1.15398,1.46448
1535264509217065,-1.27229,1.16511,1.46711
1535264509240136,-1.26984,1.17535,1.4693
1535264509261686,-1.26823,1.1854,1.47187
1535264509277228,-1.26755,1.19475,1.47387
1535264509300307,-1.26682,1.2029,1.47489
1535264509322846,-1.26429,1.21068,1.47672
1535264509337386,-1.26075,1.21808,1.48016
1535264509360447,-1.25674,1.22543,1.48532
1535264509383007,-1.25336,1.2325,1.48928
1535264509397061,-1.24813,1.23908,1.4941
1535264509420608,-1.24225,1.24607,1.5003
1535264509442664,-1.2363,1.2526,1.50677
1535264509457205,-1.23177,1.25849,1.51187
1535264509480265,-1.22794,1.26421,1.51613
1535264509510345,-1.22396,1.26992,1.52005
1535264509517370,-1.2202,1.27616,1.52421
1535264509540530,-1.21584,1.28267,1.52914
1535264509571006,-1.20869,1.28927,1.53686
1535264509577021,-1.19989,1.29581,1.54572
1535264509600584,-1.18995,1.30233,1.55738
1535264509622736,-1.18025,1.30843,1.56947
1535264509644200,-1.16836,1.3136,1.5811
1535264509660245,-1.15747,1.31901,1.59204
1535264509682805,-1.14548,1.32411,1.60459
1535264509697342,-1.1332,1.32948,1.61949
1535264509720404,-1.12161,1.33453,1.63235
1535264509750537,-1.10929,1.33933,1.64403
1535264509764070,-1.097,1.34448,1.65632
1535264509780597,-1.08618,1.34885,1.66879
1535264509802700,-1.07697,1.3525,1.67894
1535264509824184,-1.06649,1.35579,1.68893
1535264509840223,-1.05293,1.35932,1.70212
1535264509862783,-1.03967,1.3626,1.71653
1535264509883878,-1.02568,1.36495,1.73083
1535264509900383,-1.01155,1.36797,1.74537
1535264509922943,-0.996609,1.37091,1.76052
1535264509944003,-0.981197,1.37368,1.7761
1535264509960577,-0.967927,1.3768,1.79083
1535264509982719,-0.957698,1.37937,1.80129
1535264510004183,-0.947738,1.38215,1.81089
1535264510020253,-0.935884,1.38526,1.824
1535264510042804,-0.924227,1.38731,1.83631
1535264510064152,-0.917358,1.389,1.84378
1535264510080404,-0.91687,1.38908,1.84413
1535264510102963,-0.91708,1.38822,1.8435
1535264510124066,-0.921642,1.38611,1.83841
1535264510140564,-0.931026,1.38257,1.82857
1535264510163122,-0.945144,1.37912,1.81384
1535264510183769,-0.960233,1.37491,1.79783
1535264510200315,-0.975983,1.36966,1.7817
1535264510222873,-0.993398,1.36444,1.76391
1535264510243974,-1.00882,1.35898,1.74796
1535264510260524,-1.01997,1.35342,1.73674
1535264510283075,-1.02807,1.34817,1.72882
1535264510305595,-1.03439,1.34147,1.72252
1535264510319858,-1.04365,1.33395,1.71348
1535264510342925,-1.05455,1.32683,1.70253
1535264510371493,-1.06636,1.31987,1.6909
1535264510379515,-1.07799,1.31178,1.6783
1535264510403082,-1.09002,1.30448,1.66609
1535264510425640,-1.09959,1.29759,1.65628
1535264510439722,-1.10747,1.29059,1.64826
1535264510462822,-1.11584,1.28319,1.64042
1535264510485361,-1.12284,1.2755,1.63314
1535264510506396,-1.1279,1.26844,1.62772
1535264510522897,-1.13168,1.2612,1.62271
1535264510545456,-1.13503,1.25354,1.6189
1535264510566564,-1.13948,1.24507,1.61407
1535264510582555,-1.14594,1.2366,1.60743
1535264510605618,-1.15241,1.22905,1.59988
1535264510626672,-1.15856,1.22194,1.59325
1535264510642728,-1.16553,1.21473,1.58594
1535264510665334,-1.17286,1.20802,1.57853
1535264510686333,-1.17831,1.20163,1.57197
1535264510702877,-1.18331,1.19606,1.56755
1535264510725629,-1.18802,1.18981,1.56285
1535264510746500,-1.19168,1.18389,1.55881
1535264510763037,-1.19551,1.17754,1.5545
1535264510785598,-1.1977,1.17145,1.55168
1535264510806690,-1.2011,1.16548,1.54811
1535264510830214,-1.20433,1.15912,1.54428
1535264510845253,-1.2081,1.15296,1.54017
1535264510866340,-1.21165,1.1472,1.53661
1535264510882855,-1.21486,1.14096,1.53237
1535264510912939,-1.21881,1.13482,1.52705
1535264510926526,-1.2237,1.12854,1.52157
1535264510950565,-1.22819,1.12208,1.51714
1535264510973095,-1.23305,1.11524,1.513
1535264510986630,-1.23821,1.10824,1.50789
1535264511002674,-1.24254,1.10102,1.50256
1535264511025233,-1.24564,1.09327,1.49747
1535264511046290,-1.24824,1.08593,1.49365
1535264511062833,-1.25215,1.07753,1.48963
1535264511092913,-1.25541,1.06856,1.48554
1535264511106449,-1.25755,1.05974,1.48034
1535264511122159,-1.25909,1.05039,1.47622
1535264511146058,-1.26052,1.04015,1.47296
1535264511166621,-1.26275,1.02996,1.47154
1535264511182396,-1.26536,1.01958,1.46968
1535264511205739,-1.26736,1.00895,1.46728
1535264511227773,-1.26927,0.997852,1.46417
1535264511242310,-1.27217,0.98674,1.46041
1535264511265372,-1.27518,0.97538,1.45669
1535264511287934,-1.27757,0.964162,1.4541
1535264511302321,-1.2801,0.952411,1.45166
1535264511325535,-1.28226,0.940365,1.44951
1535264511348128,-1.28362,0.92847,1.44733
1535264511362164,-1.28436,0.916518,1.44625
1535264511385190,-1.28435,0.904726,1.44639
1535264511413810,-1.28403,0.892614,1.4464
1535264511422290,-1.28375,0.880709,1.44547
1535264511445393,-1.28261,0.869442,1.44509
1535264511473970,-1.28178,0.858081,1.44527
1535264511489008,-1.28362,0.846294,1.44432
1535264511505560,-1.28548,0.835099,1.44262
1535264511527569,-1.28668,0.824162,1.44046
1535264511550633,-1.28868,0.81368,1.43876
1535264511565241,-1.29192,0.803381,1.43662
1535264511587729,-1.29425,0.793889,1.43453
1535264511608786,-1.29737,0.784559,1.43155
1535264511625330,-1.30036,0.775918,1.42889
1535264511647895,-1.30245,0.767715,1.42642
1535264511668986,-1.30394,0.759588,1.42412
1535264511693012,-1.30562,0.75165,1.42275
1535264511708049,-1.30726,0.743494,1.42158
1535264511728693,-1.30843,0.734895,1.42056
1535264511745238,-1.30924,0.726385,1.41946
1535264511767799,-1.31074,0.717694,1.41824
1535264511788896,-1.31267,0.709045,1.41667
1535264511805398,-1.31469,0.700026,1.4146
1535264511827957,-1.31631,0.690874,1.41343
1535264511849066,-1.31857,0.681599,1.41214
1535264511864663,-1.32084,0.672483,1.41113
1535264511887614,-1.32213,0.66341,1.4098
1535264511909173,-1.32199,0.653648,1.4084
1535264511925217,-1.32238,0.644202,1.40739
1535264511947775,-1.32479,0.634726,1.40651
1535264511968874,-1.32574,0.624748,1.40572
1535264511991397,-1.32579,0.614614,1.40499
1535264512007937,-1.32644,0.60438,1.40467
1535264512029316,-1.32792,0.593875,1.40445
1535264512045536,-1.32763,0.583878,1.40401
1535264512067595,-1.32659,0.574366,1.40374
1535264512090154,-1.32735,0.564762,1.40365
1535264512104694,-1.3283,0.55508,1.40322
1535264512127812,-1.32881,0.545321,1.40273
1535264512150335,-1.33016,0.536108,1.4026
1535264512164907,-1.33139,0.527144,1.4031
1535264512187977,-1.3315,0.518807,1.40321
1535264512210474,-1.33171,0.511229,1.40313
1535264512225013,-1.33244,0.504583,1.40345
1535264512247573,-1.33365,0.498025,1.40326
1535264512270182,-1.33431,0.491517,1.40253
1535264512284673,-1.3353,0.485576,1.40134
1535264512309238,-1.33623,0.47938,1.4001
1535264512330295,-1.33686,0.472766,1.39857
1535264512344831,-1.3372,0.466124,1.39743
1535264512368446,-1.33709,0.458486,1.39628
1535264512390453,-1.33775,0.450308,1.39526
1535264512413045,-1.33921,0.442066,1.39425
1535264512427914,-1.33901,0.433772,1.39321
1535264512450113,-1.33831,0.424528,1.39212
1535264512471668,-1.33929,0.415046,1.39145
1535264512487757,-1.3417,0.405235,1.39064
1535264512510273,-1.34372,0.395355,1.38996
1535264512538905,-1.34511,0.385674,1.3887
1535264512547872,-1.3453,0.376278,1.3869
1535264512570485,-1.34617,0.367301,1.38613
1535264512591491,-1.34744,0.35812,1.38607
1535264512615552,-1.34811,0.348721,1.38633
1535264512630593,-1.34733,0.339106,1.38648
1535264512651654,-1.34615,0.329918,1.38639
1535264512667691,-1.34572,0.320633,1.38658
1535264512690753,-1.34557,0.311235,1.38705
1535264512711379,-1.34612,0.301511,1.38746
1535264512727852,-1.34571,0.291699,1.38751
1535264512757970,-1.34575,0.281716,1.388
1535264512771470,-1.34724,0.272152,1.38878
1535264512788011,-1.34906,0.262478,1.38949
1535264512810572,-1.35006,0.252637,1.3901
1535264512831129,-1.35018,0.24274,1.39009
1535264512847970,-1.34891,0.232768,1.38983
1535264512870286,-1.34889,0.223415,1.38985
1535264512891286,-1.34991,0.214254,1.38995
1535264512907838,-1.35118,0.20553,1.38991
1535264512930469,-1.35168,0.197098,1.38966
1535264512951490,-1.35302,0.188652,1.38959
1535264512967992,-1.35472,0.180528,1.38949
1535264512990569,-1.35601,0.172742,1.38874
1535264513011651,-1.35634,0.164733,1.38798
1535264513027150,-1.35668,0.157103,1.38725
1535264513050314,-1.35811,0.149753,1.38656
1535264513071269,-1.36035,0.14201,1.38525
1535264513087309,-1.3624,0.13389,1.38417
1535264513110225,-1.36415,0.125392,1.38347
1535264513132969,-1.36588,0.117337,1.38303
1535264513147471,-1.3663,0.109146,1.38285
1535264513170531,-1.36533,0.100702,1.38322
1535264513193091,-1.36377,0.0919754,1.38388
1535264513207168,-1.36261,0.0828735,1.38454
1535264513230187,-1.36216,0.0736466,1.38549
1535264513252829,-1.36118,0.0643562,1.38604
1535264513258268,-1.35953,0.0545195,1.38677
1535264513274807,-1.35791,0.0446709,1.38738
1535264513295864,-1.3574,0.0353386,1.3881
1535264513326445,-1.3565,0.0262821,1.38879
1535264513334464,-1.35493,0.0167389,1.38928
1535264513355560,-1.35455,0.00727338,1.3902
1535264513378082,-1.35437,-0.00231001,1.39108
1535264513394624,-1.3536,-0.0122104,1.39158
1535264513415722,-1.35237,-0.022404,1.3921
1535264513438291,-1.3511,-0.0326517,1.39279
1535264513454787,-1.35051,-0.0430495,1.39354
1535264513475843,-1.34989,-0.0527835,1.39439
1535264513498404,-1.34855,-0.062842,1.39497
1535264513514945,-1.34715,-0.0725066,1.39584
1535264513536005,-1.34704,-0.0816762,1.39682
1535264513558181,-1.34745,-0.0904862,1.39749
1535264513574741,-1.347,-0.0993874,1.39789
1535264513595816,-1.34626,-0.107981,1.39846
1535264513618373,-1.34581,-0.116244,1.39932
1535264513636902,-1.34548,-0.124511,1.39995
1535264513655931,-1.34489,-0.132118,1.40043
1535264513678493,-1.34466,-0.13904,1.40107
1535264513696038,-1.34516,-0.14521,1.40176
1535264513715743,-1.34514,-0.150485,1.40195
1535264513738148,-1.34458,-0.155294,1.40219
1535264513756220,-1.34495,-0.159394,1.40268
1535264513775821,-1.34622,-0.163244,1.40306
1535264513798349,-1.34661,-0.166562,1.40314
1535264513814892,-1.34689,-0.169639,1.40336
1535264513835909,-1.34719,-0.172608,1.40369
1535264513858520,-1.34728,-0.175016,1.40418
1535264513874629,-1.34691,-0.17698,1.40421
1535264513895570,-1.34634,-0.178034,1.40407
1535264513918127,-1.34623,-0.178392,1.40406
1535264513934674,-1.3468,-0.177693,1.40408
1535264513955728,-1.34724,-0.17689,1.40376
1535264513978288,-1.34758,-0.176091,1.40355
1535264513994839,-1.34736,-0.175177,1.40324
1535264514015916,-1.3467,-0.174337,1.40282
1535264514038478,-1.34582,-0.172719,1.40221
1535264514055994,-1.34459,-0.170974,1.4017
1535264514075546,-1.34315,-0.170109,1.40107
1535264514098156,-1.34225,-0.169845,1.40041
1535264514116156,-1.34238,-0.169788,1.40042
1535264514135750,-1.34326,-0.169293,1.4003
1535264514158266,-1.34339,-0.169127,1.40043
1535264514176314,-1.34351,-0.16934,1.40065
1535264514195867,-1.34461,-0.169514,1.40085
1535264514218470,-1.34609,-0.169594,1.40176
1535264514235973,-1.34677,-0.169864,1.40266
1535264514255529,-1.34688,-0.170697,1.40343
1535264514278588,-1.347,-0.171176,1.40433
1535264514296135,-1.34713,-0.171387,1.40513
1535264514315732,-1.34667,-0.171915,1.40568
1535264514338289,-1.34602,-0.172918,1.40635
1535264514356332,-1.3451,-0.173898,1.40677
1535264514383364,-1.34455,-0.174571,1.40709
1535264514398450,-1.34377,-0.174601,1.40733
1535264514415988,-1.34266,-0.174536,1.40746
1535264514436004,-1.34255,-0.174405,1.40746
1535264514458103,-1.34244,-0.174274,1.40747
1535264514476112,-1.34155,-0.173632,1.40728
1535264514495707,-1.34043,-0.173379,1.40684
1535264514518264,-1.33999,-0.172801,1.40641
1535264514536327,-1.3393,-0.172094,1.40598
1535264514555823,-1.33899,-0.172001,1.406
1535264514578386,-1.33911,-0.171943,1.40601
1535264514596933,-1.33899,-0.171865,1.40589
1535264514615982,-1.33797,-0.171577,1.40556
1535264514638043,-1.33719,-0.171039,1.40513
1535264514656090,-1.33675,-0.170433,1.40449
1535264514677150,-1.3364,-0.169711,1.4037
1535264514699707,-1.3365,-0.169653,1.40313
1535264514716251,-1.33638,-0.170037,1.40277
1535264514737445,-1.33615,-0.170398,1.4023
1535264514758500,-1.33536,-0.170535,1.40185
1535264514776048,-1.33457,-0.171216,1.40183
1535264514797105,-1.33411,-0.171802,1.40181
1535264514818211,-1.33399,-0.171859,1.4018
1535264514836211,-1.334,-0.171698,1.40204
1535264514857269,-1.33346,-0.171694,1.4024
1535264514878378,-1.33255,-0.172188,1.40238
1535264514896369,-1.33223,-0.172555,1.40261
1535264514916928,-1.33155,-0.172661,1.40283
1535264514938514,-1.32988,-0.172862,1.40297
1535264514956028,-1.32899,-0.172896,1.40275
1535264514977588,-1.329,-0.172679,1.40254
1535264514998225,-1.32943,-0.172579,1.40241
1535264515016188,-1.32957,-0.172469,1.40255
1535264515038749,-1.32932,-0.171767,1.40188
1535264515058299,-1.329,-0.170693,1.40136
1535264515076347,-1.32958,-0.169424,1.4013
1535264515098943,-1.32971,-0.168362,1.40112
1535264515118519,-1.3295,-0.167502,1.40083
1535264515136009,-1.33006,-0.166612,1.40074
1535264515158566,-1.33086,-0.165879,1.40088
1535264515178210,-1.33077,-0.165342,1.40114
1535264515196219,-1.33034,-0.164845,1.40141
1535264515218727,-1.3298,-0.164216,1.40168
1535264515238279,-1.32826,-0.163626,1.40186
1535264515256828,-1.32672,-0.163065,1.40226
1535264515278886,-1.32607,-0.162522,1.40231
1535264515298455,-1.32608,-0.162114,1.40199
1535264515316514,-1.32642,-0.161665,1.40166
1535264515338546,-1.32653,-0.161632,1.40132
1535264515358098,-1.32539,-0.161752,1.40086
1535264515376646,-1.32439,-0.161977,1.40031
1535264515398705,-1.32506,-0.161786,1.39984
1535264515418256,-1.32571,-0.161813,1.39959
1535264515436306,-1.32582,-0.16178,1.39924
1535264515458864,-1.32582,-0.16178,1.39924
1535264515478416,-1.32582,-0.161536,1.39925
1535264515496051,-1.32594,-0.161614,1.39937
1535264515518529,-1.32603,-0.162207,1.39956
1535264515538118,-1.32636,-0.163064,1.39986
1535264515556124,-1.32611,-0.163776,1.3997
1535264515578724,-1.32656,-0.164032,1.40003
1535264515599740,-1.32657,-0.164115,1.40026
1535264515616284,-1.326,-0.164189,1.40015
1535264515638845,-1.32611,-0.164673,1.40001
1535264515659899,-1.32631,-0.16488,1.39998
1535264515675945,-1.32664,-0.165357,1.40019
1535264515698503,-1.3263,-0.165885,1.40017
1535264515719559,-1.32629,-0.166182,1.40003
1535264515736104,-1.32652,-0.166147,1.40015
1535264515758663,-1.32674,-0.16633,1.40047
1535264515779720,-1.32707,-0.166699,1.4008
1535264515796307,-1.32719,-0.167022,1.40091
1535264515818856,-1.32761,-0.167247,1.40087
1535264515839878,-1.3285,-0.167487,1.4013
1535264515855921,-1.32829,-0.167877,1.40164
1535264515878486,-1.32784,-0.167922,1.40175
1535264515899566,-1.32852,-0.167871,1.40198
1535264515916083,-1.32918,-0.167764,1.4022
1535264515938643,-1.3293,-0.16787,1.40254
1535264515961203,-1.32886,-0.167534,1.40256
1535264515981295,-1.32887,-0.167345,1.40258
1535264515998845,-1.32887,-0.167237,1.40269
1535264516021381,-1.32832,-0.167259,1.4027
1535264516041417,-1.32833,-0.167206,1.40283
1535264516058040,-1.32856,-0.167063,1.40306
1535264516088051,-1.32853,-0.167441,1.40303
1535264516101616,-1.32832,-0.168076,1.40335
1535264516117617,-1.32853,-0.168582,1.40333
1535264516140177,-1.32886,-0.169004,1.40353
1535264516161235,-1.32861,-0.169364,1.4035
1535264516177779,-1.32875,-0.169634,1.40374
1535264516200339,-1.32861,-0.1695,1.40361
1535264516221437,-1.32875,-0.169389,1.40375
1535264516237937,-1.32873,-0.169198,1.40363
1535264516260497,-1.32875,-0.169145,1.40375
1535264516274577,-1.32873,-0.168953,1.40364
1535264516297598,-1.32875,-0.168901,1.40376
1535264516320158,-1.32887,-0.168979,1.40388
1535264516334696,-1.32897,-0.168946,1.40398
1535264516357802,-1.32898,-0.169274,1.40421
1535264516380381,-1.32897,-0.169219,1.4042
1535264516401426,-1.32943,-0.168904,1.40444
1535264516417994,-1.32943,-0.168904,1.40444
1535264516440542,-1.32944,-0.168716,1.40446
1535264516461545,-1.32932,-0.168529,1.40446
1535264516478131,-1.3291,-0.168375,1.40436
1535264516500239,-1.32878,-0.16809,1.40427
1535264516521244,-1.32867,-0.168339,1.40438
1535264516537747,-1.32866,-0.168148,1.40426
1535264516560305,-1.32833,-0.167999,1.40428
1535264516581361,-1.32845,-0.167833,1.4044
1535264516605427,-1.32833,-0.167755,1.40429
1535264516620466,-1.32834,-0.167566,1.40431
1535264516641563,-1.32856,-0.167311,1.40408
1535264516658065,-1.32856,-0.167067,1.40409
1535264516680690,-1.32856,-0.167311,1.40408
1535264516701681,-1.32889,-0.167324,1.40395
1535264516723784,-1.32912,-0.167533,1.40406
1535264516740286,-1.32889,-0.16746,1.40406
1535264516761380,-1.3289,-0.167788,1.40429
1535264516777886,-1.32933,-0.167687,1.40416
1535264516799943,-1.32899,-0.167591,1.40405
1535264516821547,-1.32878,-0.16809,1.40427
