timestamp,x,y,z,w
1535251498483228,-0.126282,0.25,-0.87677,0.39093
1535251498507292,-0.126465,0.249084,-0.876709,0.391663
1535251498522367,-0.12738,0.249146,-0.876587,0.391602
1535251498543424,-0.127747,0.249207,-0.876648,0.391296
1535251498566986,-0.128357,0.249329,-0.876526,0.391235
1535251498582026,-0.128845,0.249512,-0.876221,0.391663
1535251498604587,-0.129517,0.249634,-0.875916,0.39209
1535251498657880,-0.130249,0.249573,-0.875916,0.391907
1535251498658929,-0.131226,0.250305,-0.87561,0.391785
1535251498659733,-0.13092,0.249084,-0.875427,0.393005
1535251498671811,-0.130005,0.246826,-0.87561,0.394348
1535251498695356,-0.129517,0.24585,-0.875916,0.39447
1535251498709418,-0.1297,0.246033,-0.875854,0.394348
1535251498732954,-0.129883,0.246094,-0.87561,0.394897
1535251498778576,-0.129883,0.246094,-0.875305,0.395447
1535251498779516,-0.130493,0.246643,-0.875122,0.395386
1535251498793898,-0.131104,0.247375,-0.874939,0.395081
1535251498813168,-0.13147,0.247253,-0.874756,0.395508
1535251498829712,-0.131531,0.246643,-0.874695,0.395935
1535251498853830,-0.131836,0.246521,-0.874634,0.396057
1535251498873329,-0.131836,0.246643,-0.874512,0.39624
1535251498891377,-0.131775,0.246338,-0.874329,0.396851
1535251498913935,-0.131653,0.245422,-0.874451,0.397217
1535251498933488,-0.131714,0.244812,-0.874756,0.396973
1535251498951202,-0.131836,0.245056,-0.874878,0.396423
1535251498973595,-0.132324,0.2453,-0.874817,0.396301
1535251498993157,-0.132935,0.245972,-0.874512,0.396301
1535251499011243,-0.133545,0.246643,-0.87439,0.395996
1535251499033755,-0.133606,0.246765,-0.874329,0.395996
1535251499053307,-0.13324,0.246155,-0.874573,0.395935
1535251499071355,-0.133057,0.246277,-0.874634,0.395752
1535251499099931,-0.132507,0.246033,-0.874756,0.395935
1535251499113526,-0.131653,0.245117,-0.875183,0.395874
1535251499138607,-0.131042,0.245422,-0.875305,0.395508
1535251499153573,-0.130737,0.246521,-0.875061,0.395447
1535251499174640,-0.130493,0.247375,-0.874817,0.395691
1535251499191453,-0.129883,0.247375,-0.874756,0.395935
1535251499213902,-0.129211,0.247314,-0.874695,0.396362
1535251499234914,-0.129272,0.246948,-0.874451,0.397034
1535251499251334,-0.129639,0.246704,-0.874207,0.397644
1535251499273894,-0.129211,0.246338,-0.874146,0.398193
1535251499294950,-0.128235,0.2453,-0.874268,0.398804
1535251499310993,-0.12738,0.244751,-0.874329,0.399353
1535251499333683,-0.126648,0.24469,-0.874207,0.399841
1535251499354608,-0.12616,0.2453,-0.873962,0.400146
1535251499372676,-0.125793,0.246277,-0.873596,0.400452
1535251499393732,-0.125549,0.24707,-0.87323,0.40094
1535251499414829,-0.125549,0.247375,-0.872925,0.401367
1535251499435862,-0.125366,0.247437,-0.87262,0.402039
1535251499453935,-0.124329,0.246033,-0.872681,0.403015
1535251499476112,-0.123352,0.244568,-0.872742,0.404114
1535251499496047,-0.123413,0.244324,-0.872314,0.405151
1535251499519902,-0.122864,0.24292,-0.872253,0.40625
1535251499534651,-0.121948,0.240601,-0.87262,0.407166
1535251499557237,-0.121704,0.23999,-0.872742,0.40741
1535251499579798,-0.12262,0.240723,-0.872131,0.407898
1535251499596341,-0.122681,0.239502,-0.871765,0.409424
1535251499615895,-0.121521,0.23584,-0.872437,0.4104
1535251499633440,-0.121033,0.235291,-0.872803,0.410217
1535251499656502,-0.12323,0.23761,-0.871826,0.410278
1535251499676054,-0.125366,0.238037,-0.8703,0.412537
1535251499694102,-0.124512,0.234436,-0.870361,0.414795
1535251499723680,-0.122375,0.230835,-0.871399,0.415222
1535251499736715,-0.123901,0.232971,-0.871399,0.413574
1535251499760310,-0.124756,0.234375,-0.870239,0.415039
1535251499782838,-0.124512,0.233154,-0.869263,0.417847
1535251499797878,-0.123047,0.231628,-0.869629,0.418335
1535251499818936,-0.122742,0.232849,-0.869873,0.417236
1535251499835478,-0.124023,0.234558,-0.869629,0.416382
1535251499858038,-0.124329,0.234619,-0.868652,0.418274
1535251499886613,-0.123535,0.232788,-0.868347,0.420166
1535251499901152,-0.121277,0.230591,-0.868958,0.420837
1535251499925216,-0.119629,0.22937,-0.869324,0.421143
1535251499938752,-0.119934,0.230713,-0.868958,0.421082
1535251499954795,-0.121826,0.234497,-0.867859,0.420715
1535251499977857,-0.121765,0.236572,-0.867065,0.421143
1535251500006433,-0.119873,0.236389,-0.867493,0.420959
1535251500014955,-0.117432,0.235718,-0.868652,0.419678
1535251500038016,-0.116211,0.236328,-0.869263,0.418335
1535251500060576,-0.116577,0.238586,-0.869324,0.41687
1535251500074614,-0.117737,0.242004,-0.868896,0.415405
1535251500097675,-0.117981,0.244568,-0.868713,0.414246
1535251500120606,-0.116394,0.244812,-0.869141,0.413635
1535251500134806,-0.114258,0.243591,-0.869995,0.413208
1535251500157835,-0.112854,0.242432,-0.870605,0.412903
1535251500180896,-0.111816,0.242249,-0.870911,0.41272
1535251500194933,-0.111023,0.243042,-0.870911,0.412476
1535251500217997,-0.110779,0.244263,-0.870789,0.412048
1535251500240555,-0.110962,0.245483,-0.870789,0.411316
1535251500254592,-0.111267,0.247009,-0.870789,0.410278
1535251500277805,-0.111633,0.248291,-0.870911,0.40918
1535251500300214,-0.111694,0.249146,-0.871216,0.407959
1535251500314753,-0.111816,0.249573,-0.871704,0.406616
1535251500337814,-0.112183,0.249878,-0.872314,0.405029
1535251500360432,-0.112793,0.250916,-0.872498,0.403809
1535251500374912,-0.113464,0.251465,-0.872681,0.402893
1535251500397992,-0.114136,0.252075,-0.872559,0.402588
1535251500420534,-0.114502,0.252686,-0.872131,0.403076
1535251500434581,-0.11438,0.252502,-0.871765,0.403992
1535251500458133,-0.114441,0.251648,-0.871277,0.405518
1535251500480368,-0.114319,0.249756,-0.87085,0.407654
1535251500501248,-0.113342,0.247009,-0.870605,0.410217
1535251500518123,-0.111816,0.244385,-0.870056,0.413208
1535251500540353,-0.111023,0.241943,-0.869873,0.415283
1535251500561466,-0.111084,0.240662,-0.869385,0.416992
1535251500577952,-0.110962,0.239319,-0.868774,0.419128
1535251500600540,-0.109802,0.237427,-0.868225,0.42157
1535251500621568,-0.110229,0.236938,-0.867981,0.422363
1535251500638113,-0.112122,0.237915,-0.867493,0.422241
1535251500660279,-0.113464,0.238098,-0.866882,0.423035
1535251500681228,-0.113342,0.236206,-0.866882,0.424194
1535251500697845,-0.113892,0.234741,-0.867065,0.424438
1535251500720332,-0.115173,0.234009,-0.86731,0.424011
1535251500742891,-0.116028,0.233887,-0.867249,0.423889
1535251500758067,-0.115784,0.233032,-0.867126,0.424744
1535251500780492,-0.115662,0.232239,-0.867065,0.425293
1535251500801546,-0.115967,0.231445,-0.867676,0.4245
1535251500818090,-0.117493,0.232727,-0.867493,0.423706
1535251500840651,-0.118652,0.233582,-0.867249,0.423401
1535251500861205,-0.118408,0.233643,-0.867126,0.423645
1535251500877839,-0.118652,0.233887,-0.867554,0.422546
1535251500900312,-0.120605,0.236572,-0.867371,0.420959
1535251500921532,-0.121033,0.237488,-0.866943,0.421204
1535251500937408,-0.119873,0.236023,-0.867188,0.421875
1535251500960471,-0.118103,0.233398,-0.868286,0.42157
1535251500983031,-0.11676,0.231995,-0.869263,0.420654
1535251500998121,-0.117126,0.232849,-0.869324,0.419922
1535251501020129,-0.117798,0.234985,-0.869263,0.418762
1535251501042688,-0.117859,0.236511,-0.869446,0.417419
1535251501057736,-0.116943,0.236816,-0.870056,0.416199
1535251501080289,-0.115906,0.237122,-0.870667,0.415161
1535251501102848,-0.114929,0.238281,-0.870972,0.414124
1535251501117390,-0.114929,0.239868,-0.87085,0.413391
1535251501140452,-0.114014,0.239319,-0.87146,0.41272
1535251501163057,-0.112061,0.237122,-0.87262,0.411987
1535251501177046,-0.110779,0.235474,-0.873474,0.41156
1535251501200608,-0.110046,0.235168,-0.873718,0.411316
1535251501223169,-0.109558,0.236328,-0.873596,0.411072
1535251501237206,-0.109436,0.237732,-0.873291,0.41095
1535251501260269,-0.109314,0.238708,-0.873047,0.410889
1535251501290350,-0.108765,0.238708,-0.872986,0.411194
1535251501297368,-0.108582,0.238098,-0.872986,0.411682
1535251501320428,-0.108337,0.237061,-0.872986,0.412354
1535251501349123,-0.108154,0.236084,-0.872986,0.412903
1535251501357571,-0.107544,0.234924,-0.872986,0.413696
1535251501387670,-0.106323,0.232056,-0.873352,0.414856
1535251501403148,-0.105469,0.230225,-0.873596,0.415588
1535251501417241,-0.106628,0.231812,-0.873169,0.415344
1535251501440248,-0.107971,0.233704,-0.872131,0.416138
1535251501463312,-0.108337,0.234497,-0.871399,0.417053
1535251501484386,-0.108276,0.234741,-0.871094,0.417664
1535251501500412,-0.108765,0.235168,-0.870911,0.417603
1535251501522998,-0.108215,0.234619,-0.870972,0.417969
1535251501544022,-0.10675,0.23291,-0.870667,0.419922
1535251501560572,-0.104675,0.22998,-0.870667,0.421997
1535251501583126,-0.102661,0.227722,-0.871094,0.422913
1535251501604329,-0.102661,0.229126,-0.871033,0.422241
1535251501621228,-0.104065,0.231506,-0.870361,0.421997
1535251501642793,-0.104431,0.2323,-0.869324,0.423584
1535251501663940,-0.104004,0.231384,-0.868835,0.425171
1535251501680437,-0.102661,0.229797,-0.869446,0.42511
1535251501702955,-0.10144,0.228943,-0.8703,0.424194
1535251501724001,-0.101257,0.229431,-0.870544,0.423462
1535251501740545,-0.102112,0.231323,-0.869934,0.423462
1535251501763104,-0.103027,0.233582,-0.86908,0.423767
1535251501786669,-0.102966,0.234497,-0.868835,0.423645
1535251501807725,-0.101624,0.233337,-0.869629,0.423157
1535251501830285,-0.10022,0.232178,-0.870422,0.422363
1535251501844330,-0.0999146,0.232483,-0.870605,0.421875
1535251501860420,-0.100525,0.233887,-0.870361,0.421448
1535251501882946,-0.10144,0.236023,-0.869995,0.420837
1535251501904049,-0.101746,0.237366,-0.870056,0.419922
1535251501920524,-0.101318,0.237488,-0.870544,0.418884
1535251501943084,-0.101196,0.237549,-0.871033,0.417847
1535251501965647,-0.101501,0.238281,-0.871399,0.416626
1535251501986699,-0.102234,0.239685,-0.871521,0.415405
1535251502002745,-0.102966,0.24115,-0.871582,0.414307
1535251502025307,-0.103455,0.24176,-0.87207,0.41272
1535251502040343,-0.104065,0.242126,-0.87262,0.411255
1535251502062909,-0.105164,0.243286,-0.87262,0.410278
1535251502085471,-0.106567,0.244995,-0.872314,0.409485
1535251502100002,-0.107666,0.246094,-0.872253,0.408752
1535251502123065,-0.108459,0.246033,-0.872375,0.408264
1535251502145623,-0.108704,0.245239,-0.872498,0.408386
1535251502159746,-0.108459,0.244385,-0.872437,0.40918
1535251502190775,-0.108093,0.243713,-0.872009,0.410522
1535251502205337,-0.107727,0.242859,-0.871582,0.412048
1535251502219826,-0.107971,0.241821,-0.871155,0.413513
1535251502242882,-0.10791,0.239929,-0.870911,0.415161
1535251502265447,-0.107605,0.237732,-0.870422,0.417419
1535251502288005,-0.107056,0.235596,-0.870178,0.419373
1535251502303042,-0.107727,0.235107,-0.869629,0.420532
1535251502325603,-0.109741,0.235046,-0.868713,0.421936
1535251502339642,-0.111084,0.234436,-0.86792,0.423584
1535251502363202,-0.110718,0.232361,-0.867981,0.424744
1535251502385600,-0.111084,0.231018,-0.868591,0.424072
1535251502399840,-0.111755,0.229919,-0.869385,0.422852
1535251502423100,-0.11322,0.230347,-0.869263,0.422546
1535251502445598,-0.114746,0.232361,-0.868835,0.421814
1535251502466577,-0.115417,0.233521,-0.869263,0.420166
1535251502483041,-0.115845,0.234436,-0.869751,0.418579
1535251502505581,-0.115906,0.234802,-0.869873,0.41803
1535251502526636,-0.115845,0.234924,-0.870056,0.417725
1535251502543120,-0.115662,0.234619,-0.870361,0.417236
1535251502565240,-0.115173,0.233765,-0.870911,0.416626
1535251502589303,-0.113892,0.232239,-0.871643,0.416382
1535251502602839,-0.112671,0.23053,-0.872314,0.41626
1535251502625900,-0.112183,0.230103,-0.872681,0.415771
1535251502646458,-0.112183,0.230164,-0.872803,0.415588
1535251502663147,-0.112488,0.231384,-0.87262,0.415222
1535251502685559,-0.112854,0.232605,-0.872314,0.414978
1535251502706615,-0.112915,0.233337,-0.872253,0.414734
1535251502722658,-0.112793,0.233276,-0.872375,0.41449
1535251502746149,-0.112671,0.232422,-0.87262,0.41449
1535251502766274,-0.112976,0.23114,-0.872803,0.414734
1535251502782870,-0.113281,0.230286,-0.872925,0.414917
1535251502805427,-0.113342,0.229065,-0.873169,0.415039
1535251502826585,-0.113342,0.227661,-0.873474,0.415222
1535251502849053,-0.112549,0.225952,-0.873779,0.41571
1535251502865588,-0.11084,0.223022,-0.874268,0.416687
1535251502888148,-0.109802,0.22052,-0.874573,0.417725
1535251502902401,-0.110046,0.218445,-0.874695,0.418457
1535251502925296,-0.110168,0.216431,-0.874939,0.419006
1535251502947813,-0.11145,0.215881,-0.874878,0.419067
1535251502962962,-0.111938,0.214294,-0.875244,0.419006
1535251502985406,-0.11145,0.210266,-0.876404,0.418762
1535251503007966,-0.110474,0.2052,-0.877869,0.418396
1535251503022503,-0.108887,0.200989,-0.878845,0.418823
1535251503047125,-0.106812,0.195679,-0.879456,0.420593
1535251503067825,-0.10376,0.189209,-0.879761,0.423645
1535251503088830,-0.0999146,0.181702,-0.880737,0.425903
1535251503105373,-0.0974121,0.173401,-0.881897,0.42749
1535251503128432,-0.0963135,0.164551,-0.882629,0.429749
1535251503149038,-0.0963135,0.155457,-0.882446,0.433411
1535251503165559,-0.0969849,0.143982,-0.883057,0.436035
1535251503188101,-0.0983887,0.130737,-0.885071,0.435852
1535251503209145,-0.0992432,0.118469,-0.88678,0.435608
1535251503225189,-0.100647,0.107544,-0.887451,0.436829
1535251503247750,-0.101929,0.0946655,-0.888367,0.437561
1535251503268854,-0.103149,0.0827637,-0.890015,0.436401
1535251503285351,-0.104919,0.0771484,-0.891052,0.434875
1535251503307910,-0.106567,0.0721436,-0.890991,0.435425
1535251503329013,-0.108521,0.0656738,-0.890991,0.435913
1535251503345561,-0.111206,0.0604858,-0.891479,0.435059
1535251503369573,-0.114807,0.0579224,-0.891846,0.433655
1535251503389126,-0.118286,0.0558472,-0.891724,0.43335
1535251503405670,-0.120178,0.0522461,-0.891174,0.434326
1535251503427728,-0.122131,0.0498047,-0.890991,0.434509
1535251503448786,-0.124268,0.0493164,-0.891174,0.433533
1535251503465377,-0.127075,0.0496826,-0.891418,0.432129
1535251503487904,-0.131409,0.052063,-0.891479,0.43042
1535251503508961,-0.136047,0.053894,-0.891724,0.428284
1535251503525505,-0.140198,0.0543213,-0.892151,0.426025
1535251503548130,-0.144226,0.0546265,-0.892761,0.423401
1535251503569150,-0.147339,0.0534058,-0.893494,0.420898
1535251503585666,-0.149719,0.0529175,-0.894226,0.418579
1535251503608226,-0.151794,0.0518799,-0.894897,0.416504
1535251503629285,-0.152832,0.0496826,-0.895752,0.414551
1535251503645326,-0.153931,0.0476685,-0.895935,0.414001
1535251503667891,-0.15387,0.0457153,-0.895935,0.414246
1535251503688977,-0.15332,0.0444946,-0.896118,0.414185
1535251503705699,-0.152893,0.0427246,-0.89624,0.414246
1535251503728044,-0.152283,0.0410767,-0.896667,0.413635
1535251503749114,-0.15155,0.0404053,-0.897095,0.413147
1535251503765144,-0.151123,0.039917,-0.8974,0.412598
1535251503788204,-0.149475,0.0385132,-0.898254,0.411499
1535251503809262,-0.148132,0.0386963,-0.898865,0.410706
1535251503825401,-0.147095,0.0386353,-0.89917,0.4104
1535251503855384,-0.145569,0.0374756,-0.899353,0.410645
1535251503877944,-0.144104,0.0354004,-0.899414,0.411194
1535251503885466,-0.142334,0.0330811,-0.899719,0.411316
1535251503908023,-0.141602,0.0322876,-0.900085,0.410889
1535251503930583,-0.142212,0.0327148,-0.900146,0.410522
1535251503945623,-0.143127,0.0332642,-0.900146,0.410095
1535251503968183,-0.144104,0.0338745,-0.900146,0.409729
1535251503990243,-0.144714,0.0342407,-0.900208,0.409363
1535251504004784,-0.144653,0.0339966,-0.900452,0.408875
1535251504027954,-0.14447,0.0338745,-0.900574,0.40863
1535251504050402,-0.144775,0.0349731,-0.900513,0.408569
1535251504065442,-0.145569,0.036377,-0.900391,0.408447
1535251504088507,-0.145386,0.0368042,-0.900391,0.408447
1535251504110561,-0.144348,0.0359497,-0.900513,0.408691
1535251504124681,-0.143494,0.0354004,-0.900757,0.408508
1535251504147951,-0.143555,0.0358887,-0.900818,0.408264
1535251504170223,-0.144287,0.036499,-0.900757,0.40802
1535251504184852,-0.144409,0.0360107,-0.900818,0.407898
1535251504207890,-0.143982,0.03479,-0.901062,0.407654
1535251504230477,-0.144409,0.03479,-0.901062,0.407532
1535251504235894,-0.14563,0.0353394,-0.90094,0.407288
1535251504252438,-0.146606,0.0363159,-0.90094,0.406921
1535251504273494,-0.147278,0.0372314,-0.900818,0.406738
1535251504295554,-0.147583,0.0376587,-0.90094,0.406372
1535251504318152,-0.147522,0.0383301,-0.901062,0.406067
1535251504333199,-0.147705,0.0390015,-0.901001,0.406006
1535251504355713,-0.147766,0.0387573,-0.901123,0.405823
1535251504372258,-0.147827,0.0387573,-0.901184,0.405579
1535251504393378,-0.147949,0.0387573,-0.901306,0.405273
1535251504415917,-0.147766,0.0386963,-0.901489,0.405029
1535251504432418,-0.147766,0.0386963,-0.901489,0.405029
1535251504453472,-0.147766,0.0386353,-0.901489,0.405029
1535251504476033,-0.147644,0.0385742,-0.901428,0.405151
1535251504501099,-0.1474,0.0388794,-0.901428,0.405273
1535251504513132,-0.146912,0.0396729,-0.901428,0.405396
1535251504535691,-0.146362,0.0408325,-0.901489,0.405273
1535251504552235,-0.14624,0.0412598,-0.90155,0.40509
