timestamp,x,y,z,w
1535264504799243,-0.471497,-0.409058,0.465759,0.627197
1535264504820772,-0.471497,-0.409241,0.46582,0.627014
1535264504843391,-0.470886,-0.409424,0.466064,0.627258
1535264504858600,-0.470764,-0.409851,0.466309,0.626892
1535264504882002,-0.470215,-0.409973,0.46698,0.626709
1535264504903506,-0.469177,-0.40979,0.467957,0.626892
1535264504926053,-0.469299,-0.410217,0.468567,0.626038
1535264504970672,-0.469849,-0.410889,0.469421,0.624512
1535264504980198,-0.46875,-0.41095,0.470703,0.624329
1535264504988720,-0.467346,-0.410645,0.472107,0.624512
1535264504998746,-0.467407,-0.411133,0.472839,0.623596
1535264505015791,-0.467896,-0.411682,0.47345,0.622437
1535264505032335,-0.467712,-0.411682,0.474121,0.62207
1535264505058906,-0.466858,-0.41156,0.475281,0.621887
1535264505083472,-0.465576,-0.411804,0.476624,0.621704
1535264505095700,-0.46521,-0.412659,0.476929,0.621094
1535264505114053,-0.465454,-0.412842,0.477051,0.620728
1535264505136612,-0.465088,-0.411621,0.477844,0.621216
1535264505150650,-0.4646,-0.409668,0.478943,0.622009
1535264505173211,-0.464905,-0.407532,0.479919,0.622437
1535264505195935,-0.465637,-0.406006,0.480408,0.622498
1535264505210903,-0.466492,-0.405823,0.480042,0.622314
1535264505233373,-0.466919,-0.406128,0.479492,0.622192
1535264505255930,-0.466858,-0.406738,0.479126,0.62207
1535264505277988,-0.466614,-0.408081,0.478699,0.621704
1535264505293029,-0.465576,-0.408691,0.47876,0.62207
1535264505315589,-0.46405,-0.408691,0.47937,0.622803
1535264505330784,-0.463318,-0.409058,0.479736,0.622742
1535264505353277,-0.462708,-0.409668,0.47998,0.62262
1535264505375749,-0.462097,-0.409912,0.480347,0.62262
1535264505390789,-0.461548,-0.4104,0.480347,0.622681
1535264505413349,-0.461426,-0.410828,0.48053,0.622437
1535264505435944,-0.461121,-0.411011,0.480835,0.622314
1535264505450949,-0.46051,-0.410889,0.481506,0.622314
1535264505473010,-0.459351,-0.410889,0.4823,0.622559
1535264505504592,-0.458374,-0.41095,0.48291,0.622742
1535264505510608,-0.458008,-0.411255,0.483093,0.62262
1535264505533168,-0.45752,-0.411621,0.483337,0.622559
1535264505555764,-0.456726,-0.411804,0.483765,0.622681
1535264505570767,-0.456604,-0.412048,0.483765,0.62262
1535264505593339,-0.456787,-0.41217,0.483704,0.622498
1535264505615947,-0.456909,-0.41217,0.483643,0.622437
1535264505630987,-0.456604,-0.411926,0.483643,0.622864
1535264505653045,-0.456299,-0.411499,0.483521,0.623413
1535264505675615,-0.456299,-0.411255,0.483337,0.623718
1535264505690671,-0.456421,-0.411499,0.482849,0.62384
1535264505713231,-0.456421,-0.411865,0.482422,0.623962
1535264505735839,-0.456238,-0.412048,0.481995,0.624268
1535264505753839,-0.456238,-0.412476,0.481689,0.624268
1535264505773391,-0.456177,-0.412598,0.48175,0.624146
1535264505795950,-0.456238,-0.41217,0.481995,0.624207
1535264505818010,-0.456665,-0.411438,0.4823,0.624084
1535264505833077,-0.457275,-0.410583,0.482605,0.624023
1535264505855609,-0.458191,-0.409729,0.482666,0.62384
1535264505870779,-0.459595,-0.409363,0.482239,0.623352
1535264505893209,-0.460449,-0.408997,0.481934,0.62323
1535264505915957,-0.460754,-0.40863,0.481873,0.623291
1535264505930911,-0.46167,-0.408386,0.481689,0.622925
1535264505953391,-0.462708,-0.408386,0.481384,0.622437
1535264505975947,-0.463623,-0.408142,0.481323,0.621887
1535264505990547,-0.464233,-0.407593,0.481567,0.621643
1535264506013046,-0.465088,-0.407349,0.481445,0.621216
1535264506036125,-0.466187,-0.40741,0.481323,0.620483
1535264506050920,-0.467163,-0.40741,0.481262,0.619812
1535264506073207,-0.468445,-0.407715,0.480835,0.618958
1535264506095766,-0.469971,-0.408081,0.480347,0.617981
1535264506113814,-0.471436,-0.408386,0.479858,0.617004
1535264506134871,-0.473145,-0.408997,0.479248,0.615784
1535264506155926,-0.47522,-0.409912,0.478149,0.61438
1535264506179489,-0.477539,-0.411255,0.476746,0.612793
1535264506194528,-0.480164,-0.412476,0.475464,0.610901
1535264506215585,-0.482361,-0.413391,0.474487,0.609314
1535264506238350,-0.484314,-0.414063,0.473633,0.607971
1535264506254690,-0.485962,-0.414551,0.4729,0.606934
1535264506278836,-0.487366,-0.414856,0.472412,0.605957
1535264506293795,-0.488464,-0.4151,0.472351,0.60498
1535264506314850,-0.488953,-0.414978,0.472656,0.60437
1535264506338411,-0.489258,-0.414673,0.4729,0.604187
1535264506353452,-0.489441,-0.41449,0.473083,0.604004
1535264506374671,-0.489502,-0.414429,0.473267,0.603821
1535264506395942,-0.489563,-0.414612,0.473267,0.603699
1535264506413612,-0.489563,-0.414673,0.473083,0.603821
1535264506434671,-0.489685,-0.414673,0.4729,0.60376
1535264506455724,-0.490051,-0.414734,0.472717,0.603577
1535264506473886,-0.490601,-0.414917,0.472534,0.60321
1535264506496331,-0.490723,-0.415039,0.472534,0.603027
1535264506515884,-0.490601,-0.414978,0.472534,0.603149
1535264506533932,-0.490784,-0.4151,0.472412,0.603027
1535264506555991,-0.491272,-0.415771,0.471924,0.602539
1535264506583062,-0.491516,-0.416077,0.471558,0.602417
1535264506593590,-0.491394,-0.416077,0.471619,0.602478
1535264506616818,-0.491699,-0.41626,0.471497,0.602112
1535264506635913,-0.491699,-0.41626,0.471558,0.602112
1535264506654252,-0.491699,-0.415771,0.471924,0.602234
1535264506676310,-0.491455,-0.414917,0.472656,0.602417
1535264506698872,-0.491211,-0.413757,0.473755,0.6026
1535264506713410,-0.491333,-0.412598,0.474731,0.602478
1535264506735969,-0.492004,-0.411316,0.475586,0.602173
1535264506755816,-0.492615,-0.409424,0.476624,0.602051
1535264506781111,-0.49408,-0.407654,0.477539,0.60144
1535264506796293,-0.496094,-0.406372,0.477966,0.600281
1535264506815701,-0.497986,-0.405457,0.478149,0.599121
1535264506833751,-0.499451,-0.40448,0.478516,0.598267
1535264506856315,-0.500244,-0.403687,0.478882,0.597839
1535264506875865,-0.500732,-0.402588,0.479553,0.597656
1535264506893925,-0.501709,-0.401794,0.47998,0.597046
1535264506916481,-0.502991,-0.401245,0.480286,0.596069
1535264506936020,-0.503662,-0.400635,0.48053,0.595703
1535264506953569,-0.504211,-0.400024,0.480896,0.595398
1535264506976126,-0.504822,-0.399353,0.481323,0.594971
1535264506997222,-0.504944,-0.398926,0.481689,0.594849
1535264507013727,-0.504944,-0.398682,0.481934,0.594788
1535264507036288,-0.505188,-0.398254,0.482239,0.594666
1535264507055842,-0.505371,-0.397705,0.482666,0.594482
1535264507073887,-0.505615,-0.397278,0.483276,0.594055
1535264507095946,-0.506104,-0.39679,0.484009,0.593384
1535264507117001,-0.506409,-0.395691,0.485168,0.592957
1535264507133575,-0.50647,-0.394226,0.486694,0.59259
1535264507156108,-0.506958,-0.393188,0.488037,0.591736
1535264507177163,-0.507996,-0.392151,0.489441,0.590454
1535264507193706,-0.509033,-0.390747,0.491089,0.589111
1535264507216267,-0.509827,-0.389038,0.49292,0.588013
1535264507237897,-0.51062,-0.386841,0.494934,0.587097
1535264507258380,-0.511597,-0.384216,0.497253,0.585999
1535264507275929,-0.512756,-0.381348,0.499756,0.584717
1535264507297516,-0.514404,-0.378784,0.502075,0.583008
1535264507318039,-0.516479,-0.375977,0.504211,0.581055
1535264507336086,-0.518433,-0.373108,0.50647,0.579224
1535264507357188,-0.520325,-0.369812,0.508972,0.577454
1535264507378198,-0.522217,-0.366211,0.51178,0.5755
1535264507396246,-0.524048,-0.362488,0.514587,0.57373
1535264507418809,-0.526001,-0.359009,0.517212,0.571777
1535264507438477,-0.528687,-0.355835,0.519409,0.569275
1535264507456405,-0.531372,-0.352539,0.521606,0.566833
1535264507478998,-0.533386,-0.348999,0.523926,0.565002
1535264507499139,-0.535095,-0.345459,0.526306,0.563293
1535264507516067,-0.536865,-0.34198,0.528564,0.561646
1535264507538124,-0.538391,-0.338379,0.530945,0.56012
1535264507559209,-0.53949,-0.334717,0.533447,0.558838
1535264507575232,-0.540894,-0.33136,0.535706,0.557373
1535264507597786,-0.542664,-0.328369,0.537659,0.555481
1535264507619679,-0.544739,-0.3255,0.539673,0.553284
1535264507635202,-0.54657,-0.32251,0.541809,0.551086
1535264507657769,-0.548401,-0.319275,0.544128,0.548889
1535264507678923,-0.550415,-0.315796,0.546448,0.546509
1535264507695364,-0.552856,-0.3125,0.548584,0.543762
1535264507725541,-0.555237,-0.308899,0.550903,0.541077
1535264507739079,-0.557495,-0.305176,0.553223,0.538513
1535264507755525,-0.559387,-0.301514,0.555786,0.53595
1535264507778083,-0.561462,-0.297913,0.558472,0.532959
1535264507799176,-0.563354,-0.293945,0.561279,0.530273
1535264507815181,-0.564941,-0.289734,0.564209,0.527771
1535264507837741,-0.566284,-0.285156,0.567383,0.525452
1535264507858795,-0.56781,-0.280701,0.570435,0.522888
1535264507875341,-0.569763,-0.276489,0.573303,0.519836
1535264507897932,-0.571899,-0.272461,0.575867,0.516846
1535264507918979,-0.57373,-0.268188,0.578308,0.514282
1535264507943025,-0.575562,-0.263855,0.580872,0.511536
1535264507957560,-0.577637,-0.259827,0.583679,0.508057
1535264507979145,-0.579407,-0.255493,0.58667,0.504822
1535264508002678,-0.580994,-0.250916,0.589417,0.502136
1535264508017718,-0.582581,-0.246216,0.592163,0.499268
1535264508038800,-0.584412,-0.241821,0.595093,0.49585
1535264508055320,-0.586365,-0.237488,0.597839,0.49231
1535264508085400,-0.588135,-0.233154,0.600281,0.489258
1535264508098987,-0.589539,-0.228455,0.602722,0.486816
1535264508116037,-0.591125,-0.223877,0.605225,0.483826
1535264508138068,-0.592957,-0.21991,0.607727,0.480347
1535264508159097,-0.594482,-0.215881,0.609924,0.477417
1535264508175196,-0.595703,-0.211487,0.612244,0.474976
1535264508204215,-0.597412,-0.207214,0.614441,0.471802
1535264508218806,-0.599182,-0.203369,0.616699,0.468262
1535264508234812,-0.600647,-0.199524,0.618774,0.465271
1535264508257857,-0.602173,-0.195557,0.620789,0.462402
1535264508278966,-0.603943,-0.191589,0.622864,0.458862
1535264508294957,-0.605957,-0.187866,0.624939,0.454895
1535264508318061,-0.607666,-0.18396,0.627014,0.451355
1535264508339073,-0.60907,-0.179443,0.629089,0.448364
1535264508361680,-0.610535,-0.174805,0.631348,0.445129
1535264508377715,-0.612366,-0.170898,0.633423,0.441101
1535264508400237,-0.613953,-0.16687,0.635742,0.437073
1535264508414870,-0.615356,-0.162476,0.637939,0.433533
1535264508437838,-0.616577,-0.157837,0.640137,0.430237
1535264508460439,-0.61792,-0.153442,0.642334,0.426636
1535264508474936,-0.619385,-0.149292,0.64447,0.422729
1535264508498550,-0.620483,-0.145203,0.64679,0.419006
1535264508520608,-0.621399,-0.141479,0.649109,0.415344
1535264508534644,-0.622314,-0.137329,0.651367,0.411804
1535264508565380,-0.623352,-0.132751,0.653564,0.408264
1535264508580357,-0.624634,-0.128479,0.655579,0.404358
1535264508608843,-0.626038,-0.124268,0.657288,0.400818
1535264508617866,-0.627319,-0.119873,0.658875,0.3974
1535264508640426,-0.628967,-0.115662,0.6604,0.393494
1535264508661485,-0.630798,-0.112244,0.661804,0.38916
1535264508678127,-0.632507,-0.108582,0.663147,0.385193
1535264508700341,-0.634033,-0.104248,0.664368,0.381836
1535264508722750,-0.63562,-0.100159,0.665527,0.378174
1535264508737794,-0.637451,-0.0962524,0.666748,0.373962
1535264508761853,-0.639404,-0.0923462,0.667786,0.36969
1535264508781450,-0.640991,-0.0882568,0.668945,0.365906
1535264508797582,-0.642578,-0.0846558,0.669861,0.362244
1535264508820510,-0.644226,-0.0819092,0.671021,0.357788
1535264508841568,-0.644531,-0.0792236,0.672668,0.354736
1535264508858110,-0.648193,-0.0738525,0.671997,0.350403
1535264508880168,-0.647461,-0.0708618,0.674438,0.347656
1535264508901224,-0.650391,-0.0661621,0.674316,0.343323
1535264508917769,-0.651978,-0.0623169,0.67511,0.339478
1535264508940391,-0.653198,-0.0582886,0.67627,0.33551
1535264508961384,-0.654297,-0.0543213,0.677368,0.331848
1535264508977956,-0.655334,-0.0502319,0.678467,0.328186
1535264509000488,-0.656433,-0.0462646,0.679321,0.324707
1535264509021589,-0.657471,-0.0422363,0.68042,0.320984
1535264509037086,-0.658508,-0.0384521,0.681519,0.316833
1535264509060650,-0.659363,-0.0346069,0.682861,0.312622
1535264509081204,-0.660156,-0.0308838,0.684082,0.308594
1535264509097747,-0.660706,-0.0266113,0.685364,0.304993
1535264509120308,-0.661194,-0.022583,0.686768,0.301086
1535264509148885,-0.661743,-0.0187988,0.688293,0.296692
1535264509157909,-0.662415,-0.0148926,0.689575,0.292358
1535264509180469,-0.663086,-0.0110474,0.690674,0.288208
1535264509201523,-0.66394,-0.00726318,0.691711,0.284058
1535264509217065,-0.664795,-0.00341797,0.692505,0.280151
1535264509240136,-0.665527,0.000305176,0.693176,0.276611
1535264509261686,-0.666321,0.00366211,0.693848,0.273071
1535264509277228,-0.667175,0.0065918,0.694397,0.269531
1535264509300307,-0.667908,0.00939941,0.694763,0.266602
1535264509322846,-0.668335,0.0125122,0.69519,0.264404
1535264509337386,-0.66864,0.0151978,0.695801,0.26178
1535264509360447,-0.668884,0.0175171,0.696594,0.258911
1535264509383007,-0.669189,0.0198975,0.697205,0.256287
1535264509397061,-0.66925,0.0223999,0.697876,0.253967
1535264509420608,-0.66925,0.0249634,0.698669,0.251709
1535264509442664,-0.66925,0.0272217,0.699463,0.249268
1535264509457205,-0.669373,0.0291748,0.700073,0.246948
1535264509480265,-0.669556,0.0311279,0.700562,0.244812
1535264509510345,-0.669739,0.0332031,0.700989,0.242737
1535264509517370,-0.669983,0.0354004,0.701416,0.240601
1535264509540530,-0.670227,0.0375977,0.701904,0.238159
1535264509571006,-0.670227,0.039856,0.702637,0.235596
1535264509577021,-0.670105,0.0422363,0.70343,0.233032
1535264509600584,-0.669922,0.0441284,0.704468,0.230042
1535264509622736,-0.669739,0.0457153,0.705505,0.227173
1535264509644200,-0.669312,0.0477295,0.706421,0.224976
1535264509660245,-0.668945,0.0499268,0.707214,0.223267
1535264509682805,-0.668579,0.0516968,0.70813,0.220947
1535264509697342,-0.668274,0.0529785,0.709229,0.218079
1535264509720404,-0.667969,0.0546265,0.710083,0.215942
1535264509750537,-0.667603,0.0567627,0.710754,0.214294
1535264509764070,-0.667358,0.0587769,0.711426,0.212219
1535264509780597,-0.667175,0.0599976,0.712158,0.210022
1535264509802700,-0.666992,0.0612183,0.712708,0.208496
1535264509824184,-0.666687,0.0627441,0.713196,0.207336
1535264509840223,-0.66626,0.0643311,0.713867,0.205811
1535264509862783,-0.665833,0.0654297,0.714661,0.204163
1535264509883878,-0.665283,0.0664063,0.715454,0.202759
1535264509900383,-0.664795,0.067688,0.716187,0.201416
1535264509922943,-0.664307,0.0689697,0.716919,0.199951
1535264509944003,-0.663818,0.0701904,0.717651,0.198425
1535264509960577,-0.663513,0.071167,0.718323,0.196777
1535264509982719,-0.663391,0.0721436,0.718689,0.195374
1535264510004183,-0.66333,0.0733643,0.718933,0.194092
1535264510020253,-0.663147,0.0744019,0.719421,0.192688
1535264510042804,-0.662903,0.0751343,0.71991,0.191345
1535264510064152,-0.662842,0.0756836,0.720154,0.19043
1535264510080404,-0.662842,0.0757446,0.720154,0.190369
1535264510102963,-0.662659,0.0756226,0.720215,0.190857
1535264510124066,-0.662537,0.0749512,0.720154,0.191711
1535264510140564,-0.662476,0.0736084,0.719971,0.192993
1535264510163122,-0.662598,0.0723877,0.719482,0.195007
1535264510183769,-0.66272,0.0709229,0.718933,0.197205
1535264510200315,-0.662781,0.0689087,0.718445,0.199524
1535264510222873,-0.663025,0.0668335,0.717773,0.201843
1535264510243974,-0.663208,0.0646973,0.717163,0.203979
1535264510260524,-0.663086,0.062561,0.716858,0.206116
1535264510283075,-0.662781,0.0606079,0.716736,0.208252
1535264510305595,-0.662231,0.0581055,0.716797,0.210388
1535264510319858,-0.661804,0.0551758,0.716675,0.21283
1535264510342925,-0.66156,0.0524902,0.716309,0.215515
1535264510371493,-0.661438,0.0498047,0.71582,0.218262
1535264510379515,-0.661255,0.046936,0.71521,0.221252
1535264510403082,-0.661194,0.0442505,0.714539,0.224304
1535264510425640,-0.661072,0.041687,0.713989,0.226868
1535264510439722,-0.660828,0.0390625,0.713562,0.229309
1535264510462822,-0.660583,0.0361328,0.713135,0.231873
1535264510485361,-0.660217,0.0333252,0.712708,0.234558
1535264510506396,-0.659729,0.0308838,0.712402,0.237244
1535264510522897,-0.659119,0.0286255,0.712097,0.240051
1535264510545456,-0.658386,0.026062,0.711914,0.242981
1535264510566564,-0.657715,0.0230713,0.711609,0.245911
1535264510582555,-0.657288,0.0199585,0.71106,0.24884
1535264510605618,-0.656982,0.0175171,0.710327,0.251953
1535264510626672,-0.656738,0.0150146,0.709656,0.254639
1535264510642728,-0.656616,0.0123901,0.708862,0.257263
1535264510665334,-0.656616,0.0098877,0.708008,0.259766
1535264510686333,-0.656494,0.00775146,0.707214,0.262085
1535264510702877,-0.656372,0.0055542,0.706665,0.264099
1535264510725629,-0.656189,0.00317383,0.706055,0.266113
1535264510746500,-0.655884,0.00115967,0.705505,0.268433
1535264510763037,-0.655579,-0.0010376,0.704895,0.270752
1535264510785598,-0.65509,-0.00305176,0.704468,0.27301
1535264510806690,-0.654785,-0.00518799,0.703918,0.275146
1535264510830214,-0.654419,-0.00732422,0.703308,0.277527
1535264510845253,-0.654175,-0.00952148,0.702637,0.279663
1535264510866340,-0.653931,-0.0115967,0.702026,0.281799
1535264510882855,-0.653625,-0.0136108,0.701294,0.284119
1535264510912939,-0.653442,-0.0154419,0.700378,0.286682
1535264510926526,-0.653381,-0.0175781,0.699402,0.289124
1535264510950565,-0.653259,-0.0200195,0.698547,0.29126
1535264510973095,-0.653137,-0.0227661,0.697693,0.293457
1535264510986630,-0.653076,-0.0253906,0.696655,0.295837
1535264511002674,-0.652893,-0.027771,0.695557,0.298523
1535264511025233,-0.652466,-0.0299683,0.694458,0.301758
1535264511046290,-0.651978,-0.0321655,0.693542,0.304871
1535264511062833,-0.651611,-0.0352783,0.692505,0.307495
1535264511092913,-0.651062,-0.038269,0.691406,0.310791
1535264511106449,-0.650391,-0.0404663,0.690125,0.314758
1535264511122159,-0.649536,-0.0429688,0.688965,0.318787
1535264511146058,-0.64856,-0.0461426,0.687866,0.32251
1535264511166621,-0.647644,-0.0500488,0.687012,0.325684
1535264511182396,-0.64679,-0.0540771,0.686035,0.328735
1535264511205739,-0.645813,-0.0578003,0.684937,0.332275
1535264511227773,-0.644775,-0.0614014,0.683655,0.336304
1535264511242310,-0.643921,-0.0651245,0.68219,0.340271
1535264511265372,-0.643066,-0.0690308,0.680664,0.344116
1535264511287934,-0.64209,-0.0730591,0.679321,0.347656
1535264511302321,-0.641052,-0.0773315,0.677917,0.351379
1535264511325535,-0.639893,-0.081665,0.676514,0.355225
1535264511348128,-0.638611,-0.0856934,0.67511,0.359192
1535264511362164,-0.637146,-0.0898438,0.673889,0.363098
1535264511385190,-0.635498,-0.0941162,0.672913,0.366638
1535264511413810,-0.633728,-0.0983276,0.671875,0.370483
1535264511422290,-0.632019,-0.102173,0.670654,0.374573
1535264511445393,-0.630188,-0.105652,0.669617,0.378601
1535264511473970,-0.628357,-0.109497,0.66864,0.382202
1535264511489008,-0.627014,-0.114014,0.667236,0.385498
1535264511505560,-0.625793,-0.118042,0.66571,0.388977
1535264511527569,-0.624512,-0.121704,0.664124,0.392456
1535264511550633,-0.623413,-0.125488,0.662598,0.395752
1535264511565241,-0.62262,-0.129578,0.660889,0.398438
1535264511587729,-0.621765,-0.133057,0.659302,0.401245
1535264511608786,-0.621155,-0.136475,0.657471,0.403992
1535264511625330,-0.620605,-0.139648,0.655762,0.406616
1535264511647895,-0.619934,-0.142456,0.654175,0.409241
1535264511668986,-0.619141,-0.145142,0.652649,0.411804
1535264511693012,-0.618347,-0.148071,0.651306,0.414063
1535264511708049,-0.617493,-0.151123,0.649963,0.416321
1535264511728693,-0.616455,-0.154175,0.648621,0.418945
1535264511745238,-0.615356,-0.157104,0.647278,0.421509
1535264511767799,-0.61438,-0.160278,0.645813,0.42395
1535264511788896,-0.613525,-0.163452,0.644226,0.426392
1535264511805398,-0.612671,-0.166626,0.642456,0.429077
1535264511827957,-0.611633,-0.169983,0.640869,0.431641
1535264511849066,-0.610718,-0.173584,0.63916,0.43396
1535264511864663,-0.609802,-0.177185,0.637512,0.436218
1535264511887614,-0.608704,-0.180359,0.635864,0.438843
1535264511909173,-0.607178,-0.183289,0.634216,0.442139
1535264511925217,-0.605774,-0.186401,0.632629,0.445007
1535264511947775,-0.604797,-0.190186,0.630859,0.447266
1535264511968874,-0.603394,-0.193726,0.62915,0.450012
1535264511991397,-0.601746,-0.197021,0.627502,0.453125
1535264512007937,-0.600159,-0.200684,0.625854,0.455872
1535264512029316,-0.598694,-0.204712,0.624084,0.458435
1535264512045536,-0.596924,-0.207947,0.622498,0.461426
1535264512067595,-0.595032,-0.210815,0.621094,0.464478
1535264512090154,-0.593506,-0.214355,0.619507,0.466858
1535264512104694,-0.592041,-0.217834,0.617798,0.469421
1535264512127812,-0.590454,-0.221191,0.616089,0.472107
1535264512150335,-0.589111,-0.224731,0.614441,0.474243
1535264512164907,-0.587708,-0.228333,0.612976,0.476135
1535264512187977,-0.586182,-0.231262,0.611633,0.478271
1535264512210474,-0.584839,-0.233887,0.610352,0.480286
1535264512225013,-0.58374,-0.23645,0.609253,0.481812
1535264512247573,-0.582825,-0.239014,0.607971,0.483215
1535264512270182,-0.581848,-0.241211,0.606628,0.484985
1535264512284673,-0.581116,-0.243164,0.605225,0.486694
1535264512309238,-0.580322,-0.245178,0.60376,0.488464
1535264512330295,-0.579407,-0.247192,0.602173,0.490417
1535264512344831,-0.578369,-0.249207,0.600708,0.492432
1535264512368446,-0.577026,-0.251404,0.599121,0.494873
1535264512390453,-0.575745,-0.254089,0.597351,0.49707
1535264512413045,-0.574646,-0.257019,0.595459,0.499084
1535264512427914,-0.57312,-0.25946,0.59375,0.501587
1535264512450113,-0.571289,-0.262024,0.591919,0.504578
1535264512471668,-0.569763,-0.26532,0.589905,0.506897
1535264512487757,-0.568542,-0.269104,0.587585,0.508911
1535264512510273,-0.5672,-0.272766,0.585327,0.511169
1535264512538905,-0.565796,-0.276062,0.583008,0.51355
1535264512547872,-0.564209,-0.278748,0.58075,0.516357
1535264512570485,-0.562744,-0.281738,0.578735,0.518677
1535264512591491,-0.561218,-0.285156,0.576782,0.520569
1535264512615552,-0.559448,-0.288513,0.574951,0.522705
1535264512630593,-0.557251,-0.291504,0.573242,0.525269
1535264512651654,-0.555054,-0.294189,0.571594,0.527832
1535264512667691,-0.552979,-0.29718,0.569885,0.530151
1535264512690753,-0.550903,-0.300354,0.568176,0.532349
1535264512711379,-0.54895,-0.303772,0.566284,0.534546
1535264512727852,-0.546753,-0.306885,0.564392,0.536987
1535264512757970,-0.544556,-0.310303,0.5625,0.539185
1535264512771470,-0.542786,-0.314026,0.560547,0.540894
1535264512788011,-0.541077,-0.317871,0.558472,0.54248
1535264512810572,-0.539124,-0.321472,0.556458,0.544434
1535264512831129,-0.536987,-0.324707,0.554382,0.546692
1535264512847970,-0.534485,-0.327515,0.552429,0.549377
1535264512870286,-0.53241,-0.330505,0.550476,0.551575
1535264512891286,-0.53064,-0.33374,0.548401,0.553406
1535264512907838,-0.529053,-0.336853,0.546326,0.555115
1535264512930469,-0.527344,-0.3396,0.544373,0.557007
1535264512951490,-0.525818,-0.342651,0.542297,0.558533
1535264512967992,-0.524475,-0.345642,0.540222,0.559998
1535264512990569,-0.523193,-0.348267,0.538086,0.561584
1535264513011651,-0.521606,-0.350647,0.536072,0.563599
1535264513027150,-0.520081,-0.352966,0.534119,0.565369
1535264513050314,-0.518921,-0.355469,0.532043,0.566833
1535264513071269,-0.518005,-0.358154,0.529541,0.568298
1535264513087309,-0.516907,-0.360962,0.527039,0.569824
1535264513110225,-0.515564,-0.363892,0.524597,0.571411
1535264513132969,-0.514282,-0.366699,0.522339,0.572937
1535264513147471,-0.512512,-0.369324,0.520325,0.574585
1535264513170531,-0.510193,-0.371765,0.518677,0.576599
1535264513193091,-0.507568,-0.374207,0.517151,0.578735
1535264513207168,-0.504944,-0.376892,0.515442,0.58075
1535264513230187,-0.502441,-0.379822,0.513672,0.582642
1535264513252829,-0.499817,-0.382568,0.511841,0.584656
1535264513258268,-0.496826,-0.385315,0.510071,0.586975
1535264513274807,-0.493835,-0.388062,0.50824,0.589233
1535264513295864,-0.491272,-0.39093,0.506348,0.591125
1535264513326445,-0.488647,-0.393616,0.504578,0.593018
1535264513334464,-0.485718,-0.39624,0.502747,0.595154
1535264513355560,-0.483093,-0.39917,0.500854,0.597046
1535264513378082,-0.480469,-0.402222,0.49884,0.598755
1535264513394624,-0.477661,-0.40509,0.496765,0.60083
1535264513415722,-0.474609,-0.407959,0.49469,0.602966
1535264513438291,-0.471497,-0.410828,0.492676,0.605164
1535264513454787,-0.468506,-0.41394,0.490479,0.607117
1535264513475843,-0.465637,-0.41687,0.488464,0.608887
1535264513498404,-0.462524,-0.419617,0.48645,0.611023
1535264513514945,-0.459412,-0.422302,0.484619,0.612976
1535264513536005,-0.456787,-0.425171,0.482666,0.614502
1535264513558181,-0.454468,-0.427979,0.480591,0.615906
1535264513574741,-0.451904,-0.430542,0.478577,0.617554
1535264513595816,-0.44928,-0.432983,0.476746,0.619141
1535264513618373,-0.446777,-0.435425,0.475037,0.620605
1535264513636902,-0.444336,-0.437866,0.473206,0.622009
1535264513655931,-0.442017,-0.440002,0.471558,0.623413
1535264513678493,-0.439941,-0.442078,0.470032,0.624512
1535264513696038,-0.438293,-0.444092,0.468567,0.625366
1535264513715743,-0.436829,-0.445618,0.467285,0.626282
1535264513738148,-0.435303,-0.446899,0.466248,0.627197
1535264513756220,-0.434204,-0.448242,0.465271,0.627747
1535264513775821,-0.433472,-0.449707,0.464111,0.628052
1535264513798349,-0.432678,-0.450745,0.463196,0.62854
1535264513814892,-0.431885,-0.451721,0.462402,0.628967
1535264513835909,-0.431091,-0.452698,0.46167,0.629333
1535264513858520,-0.430359,-0.453491,0.461182,0.629639
1535264513874629,-0.429688,-0.453979,0.460754,0.630005
1535264513895570,-0.42926,-0.454102,0.460571,0.630371
1535264513918127,-0.429138,-0.454163,0.46051,0.630493
1535264513934674,-0.429504,-0.454102,0.460571,0.630249
1535264513955728,-0.429932,-0.453918,0.460571,0.630066
1535264513978288,-0.430298,-0.453735,0.460632,0.629883
1535264513994839,-0.430542,-0.453369,0.460815,0.629822
1535264514015916,-0.430664,-0.452881,0.46106,0.629944
1535264514038478,-0.430969,-0.452087,0.461487,0.630005
1535264514055994,-0.431152,-0.451233,0.462036,0.630005
1535264514075546,-0.431091,-0.4505,0.462402,0.630371
1535264514098156,-0.43103,-0.450073,0.462463,0.630676
1535264514116156,-0.431091,-0.450073,0.462463,0.630676
1535264514135750,-0.431519,-0.450134,0.462341,0.630371
1535264514158266,-0.43158,-0.450134,0.462402,0.63031
1535264514176314,-0.431519,-0.450256,0.462402,0.63031
1535264514195867,-0.431763,-0.450623,0.462158,0.630005
1535264514218470,-0.432007,-0.451172,0.462097,0.629517
1535264514235973,-0.431946,-0.451599,0.462158,0.629211
1535264514255529,-0.43158,-0.452026,0.462158,0.62915
1535264514278588,-0.431274,-0.452393,0.46228,0.628967
1535264514296135,-0.431091,-0.452637,0.462463,0.628845
1535264514315732,-0.430664,-0.45282,0.462585,0.628845
1535264514338289,-0.430054,-0.453064,0.462708,0.629089
1535264514356332,-0.429382,-0.453247,0.462769,0.629272
1535264514383364,-0.428955,-0.453369,0.46283,0.629456
1535264514398450,-0.42865,-0.453247,0.463074,0.629578
1535264514415988,-0.428284,-0.453003,0.463379,0.629761
1535264514436004,-0.428284,-0.452942,0.46344,0.629761
1535264514458103,-0.428284,-0.452881,0.463501,0.629761
1535264514476112,-0.428223,-0.452454,0.463806,0.629883
1535264514495707,-0.42804,-0.452026,0.463989,0.630188
1535264514518264,-0.428162,-0.45166,0.464111,0.63031
1535264514536327,-0.428223,-0.451233,0.464294,0.630371
1535264514555823,-0.428162,-0.451111,0.464417,0.630493
1535264514578386,-0.428223,-0.451111,0.464417,0.630493
1535264514596933,-0.428223,-0.45105,0.464417,0.630493
1535264514615982,-0.42804,-0.450684,0.4646,0.630676
1535264514638043,-0.42804,-0.450256,0.464783,0.630859
1535264514656090,-0.428223,-0.449829,0.464844,0.631042
1535264514677150,-0.428467,-0.449402,0.464844,0.631104
1535264514699707,-0.42865,-0.44928,0.464661,0.631226
1535264514716251,-0.428589,-0.44928,0.464478,0.631409
1535264514737445,-0.428528,-0.449219,0.464294,0.631653
1535264514758500,-0.428345,-0.448975,0.464294,0.631958
1535264514776048,-0.427917,-0.448975,0.464294,0.632263
1535264514797105,-0.427612,-0.449036,0.464233,0.632446
1535264514818211,-0.427551,-0.449036,0.464233,0.632446
1535264514836211,-0.427551,-0.449036,0.464355,0.632385
1535264514857269,-0.427307,-0.448975,0.4646,0.632446
1535264514878378,-0.42688,-0.448914,0.464661,0.63269
1535264514896369,-0.426636,-0.448975,0.464722,0.632813
1535264514916928,-0.426331,-0.448914,0.464905,0.632874
1535264514938514,-0.42572,-0.448608,0.465271,0.63324
1535264514956028,-0.425476,-0.448364,0.465393,0.633484
1535264514977588,-0.425598,-0.448242,0.465393,0.633545
1535264514998225,-0.425781,-0.448303,0.465271,0.633423
1535264515016188,-0.425842,-0.448303,0.465332,0.633423
1535264515038749,-0.426086,-0.447937,0.465332,0.633423
1535264515058299,-0.426392,-0.447449,0.465515,0.633423
1535264515076347,-0.426941,-0.447205,0.465698,0.633118
1535264515098943,-0.427307,-0.446899,0.465881,0.632935
1535264515118519,-0.427551,-0.446533,0.466064,0.632935
1535264515136009,-0.427979,-0.446411,0.466125,0.632629
1535264515158566,-0.428406,-0.446411,0.466187,0.632324
1535264515178210,-0.428467,-0.446289,0.466431,0.632202
1535264515196219,-0.428406,-0.446106,0.466736,0.632141
1535264515218727,-0.428345,-0.445862,0.467102,0.63208
1535264515238279,-0.427979,-0.445374,0.467651,0.632263
1535264515256828,-0.427551,-0.444946,0.468262,0.632385
1535264515278886,-0.42749,-0.444641,0.468567,0.632446
1535264515298455,-0.427673,-0.444458,0.468567,0.632446
1535264515316514,-0.427979,-0.444336,0.468506,0.632385
1535264515338546,-0.428101,-0.444275,0.468384,0.632446
1535264515358098,-0.427795,-0.44397,0.468445,0.632751
1535264515376646,-0.427551,-0.443665,0.468445,0.633179
1535264515398705,-0.427917,-0.443665,0.468201,0.633118
1535264515418256,-0.428162,-0.443787,0.467957,0.632996
1535264515436306,-0.428284,-0.443726,0.467834,0.633057
1535264515458864,-0.428284,-0.443726,0.467834,0.633057
1535264515478416,-0.428345,-0.443665,0.467896,0.632996
1535264515496051,-0.428345,-0.443726,0.467896,0.632996
1535264515518529,-0.428162,-0.44397,0.467773,0.632996
1535264515538118,-0.427979,-0.444336,0.46759,0.633057
1535264515556124,-0.427734,-0.444458,0.467407,0.63324
1535264515578724,-0.427734,-0.444702,0.467346,0.633118
1535264515599740,-0.427673,-0.444763,0.467407,0.633118
1535264515616284,-0.42749,-0.444641,0.467468,0.63324
1535264515638845,-0.427429,-0.444763,0.467285,0.633362
1535264515659899,-0.427429,-0.444885,0.467163,0.633301
1535264515675945,-0.427368,-0.445129,0.467041,0.633301
1535264515698503,-0.427124,-0.44519,0.46698,0.633484
1535264515719559,-0.427063,-0.445251,0.466858,0.633545
1535264515736104,-0.427124,-0.445313,0.466858,0.633484
1535264515758663,-0.427063,-0.445496,0.466858,0.633362
1535264515779720,-0.427002,-0.44574,0.466797,0.633301
1535264515796307,-0.426941,-0.445862,0.466736,0.633362
1535264515818856,-0.427002,-0.446045,0.466553,0.63324
1535264515839878,-0.427124,-0.446411,0.466431,0.632996
1535264515855921,-0.42688,-0.446533,0.466492,0.633057
1535264515878486,-0.426697,-0.446472,0.466614,0.633118
1535264515899566,-0.42688,-0.446655,0.466553,0.632935
1535264515916083,-0.427063,-0.446838,0.466492,0.63269
1535264515938643,-0.427002,-0.44696,0.466553,0.632629
1535264515961203,-0.426941,-0.446777,0.466736,0.632629
1535264515981295,-0.427002,-0.446716,0.466797,0.632629
1535264515998845,-0.427002,-0.446716,0.466858,0.632568
1535264516021381,-0.426819,-0.446594,0.46698,0.63269
1535264516041417,-0.426819,-0.446594,0.467041,0.63269
1535264516058040,-0.42688,-0.446655,0.467102,0.632568
1535264516088051,-0.426758,-0.446777,0.46698,0.632568
1535264516101616,-0.426453,-0.44696,0.46698,0.63269
1535264516117617,-0.426392,-0.447144,0.466797,0.632751
1535264516140177,-0.426331,-0.447388,0.466675,0.63269
1535264516161235,-0.426147,-0.447449,0.466614,0.632751
1535264516177779,-0.426086,-0.447571,0.466614,0.632813
1535264516200339,-0.426086,-0.44751,0.466614,0.632751
1535264516221437,-0.426147,-0.44751,0.466675,0.632751
1535264516237937,-0.426208,-0.447449,0.466675,0.63269
1535264516260497,-0.426208,-0.447449,0.466736,0.63269
1535264516274577,-0.42627,-0.447388,0.466736,0.632629
1535264516297598,-0.42627,-0.447388,0.466797,0.632629
1535264516320158,-0.42627,-0.447449,0.466797,0.632629
1535264516334696,-0.42627,-0.44751,0.466797,0.632507
1535264516357802,-0.426147,-0.447632,0.466797,0.632568
1535264516380381,-0.426147,-0.447632,0.466797,0.632507
1535264516401426,-0.426331,-0.447693,0.466858,0.632324
1535264516417994,-0.426331,-0.447693,0.466858,0.632324
1535264516440542,-0.426392,-0.447632,0.466919,0.632324
1535264516461545,-0.426392,-0.447571,0.46698,0.632263
1535264516478131,-0.426392,-0.447449,0.467041,0.632324
1535264516500239,-0.426392,-0.447266,0.467163,0.632385
1535264516521244,-0.42627,-0.447327,0.467163,0.632446
1535264516537747,-0.426331,-0.447266,0.467163,0.632385
1535264516560305,-0.42627,-0.447144,0.467285,0.632446
1535264516581361,-0.426331,-0.447144,0.467346,0.632385
1535264516605427,-0.426331,-0.447083,0.467346,0.632385
1535264516620466,-0.426392,-0.447021,0.467407,0.632385
1535264516641563,-0.426575,-0.44696,0.467346,0.632324
1535264516658065,-0.426636,-0.446899,0.467407,0.632263
1535264516680690,-0.426575,-0.44696,0.467346,0.632324
1535264516701681,-0.426697,-0.447021,0.467224,0.632263
1535264516723784,-0.426697,-0.447144,0.467163,0.632263
1535264516740286,-0.426636,-0.447083,0.467224,0.632263
1535264516761380,-0.426514,-0.447205,0.467224,0.632324
1535264516777886,-0.426697,-0.447266,0.467102,0.632202
1535264516799943,-0.426636,-0.447144,0.467163,0.632263
1535264516821547,-0.426392,-0.447266,0.467163,0.632385
