timestamp,roll,pitch,yaw
1535253223688080,-1.35995,-0.230518,1.4396
1535253223710909,-1.3577,-0.231111,1.43931
1535253223726159,-1.35619,-0.231816,1.43844
1535253223749722,-1.35682,-0.231407,1.43776
1535253223770867,-1.35662,-0.230137,1.43694
1535253223786053,-1.3567,-0.229485,1.4366
1535253223809436,-1.35699,-0.228428,1.43637
1535253223830937,-1.35738,-0.226879,1.43616
1535253223878564,-1.35843,-0.225024,1.4356
1535253223879567,-1.35907,-0.223797,1.4354
1535253223900122,-1.35937,-0.222989,1.43517
1535253223914159,-1.36105,-0.222331,1.4351
1535253223929199,-1.36228,-0.221534,1.43513
1535253223955268,-1.36237,-0.221035,1.43501
1535253224005412,-1.361,-0.221055,1.43476
1535253224005904,-1.35986,-0.221388,1.43438
1535253224011919,-1.35918,-0.221944,1.43413
1535253224025455,-1.35836,-0.222038,1.43363
1535253224049018,-1.35788,-0.221825,1.43305
1535253224070575,-1.35817,-0.221327,1.43224
1535253224085615,-1.35798,-0.220656,1.43119
1535253224108224,-1.35804,-0.219709,1.43039
1535253224130735,-1.35797,-0.218947,1.42957
1535253224145806,-1.35859,-0.218348,1.42877
1535253224168336,-1.35911,-0.217702,1.42821
1535253224190895,-1.3593,-0.216987,1.42775
1535253224205935,-1.35937,-0.215895,1.42729
1535253224228040,-1.35913,-0.214553,1.42709
1535253224250555,-1.35853,-0.213382,1.42685
1535253224265690,-1.35896,-0.211974,1.42676
1535253224288154,-1.35996,-0.210452,1.42703
1535253224310714,-1.35973,-0.208802,1.42741
1535253224325754,-1.35927,-0.206943,1.42766
1535253224348314,-1.35925,-0.205037,1.42781
1535253224370874,-1.35925,-0.202969,1.4282
1535253224385914,-1.35959,-0.200502,1.42871
1535253224407973,-1.36092,-0.197001,1.42937
1535253224430533,-1.36193,-0.192946,1.43027
1535253224445573,-1.36194,-0.187455,1.4311
1535253224468177,-1.36236,-0.180365,1.43162
1535253224490693,-1.36293,-0.171977,1.43209
1535253224521776,-1.36374,-0.162984,1.43248
1535253224528294,-1.3639,-0.153571,1.43269
1535253224550854,-1.36342,-0.143929,1.43284
1535253224565893,-1.36311,-0.133448,1.43308
1535253224587952,-1.36309,-0.122015,1.43353
1535253224610511,-1.36288,-0.110871,1.43379
1535253224625553,-1.3617,-0.0998732,1.43354
1535253224648112,-1.3616,-0.0883673,1.4337
1535253224670672,-1.36224,-0.0764819,1.43391
1535253224688720,-1.36228,-0.0645322,1.43388
1535253224708272,-1.36117,-0.0520087,1.43367
1535253224730832,-1.36002,-0.0395502,1.43355
1535253224745872,-1.35962,-0.0268755,1.43324
1535253224768433,-1.35902,-0.013527,1.43252
1535253224790552,-1.35754,0.000361085,1.43204
1535253224807036,-1.35548,0.0143621,1.43124
1535253224828091,-1.35372,0.0292312,1.43043
1535253224850986,-1.35168,0.0450896,1.42965
1535253224873329,-1.34921,0.0615374,1.42861
1535253224888251,-1.34608,0.0779315,1.4272
1535253224910811,-1.34294,0.094414,1.42647
1535253224933371,-1.34043,0.111528,1.42566
1535253224948411,-1.33966,0.129781,1.42498
1535253224970470,-1.33904,0.147953,1.42434
1535253224996068,-1.33857,0.166074,1.4241
1535253225011579,-1.33761,0.184083,1.42407
1535253225030629,-1.33697,0.202339,1.42426
1535253225053189,-1.33642,0.219619,1.42451
1535253225071238,-1.33545,0.236582,1.42463
1535253225090790,-1.333,0.254809,1.4252
1535253225113351,-1.33065,0.273375,1.42627
1535253225130896,-1.32848,0.291038,1.4274
1535253225150950,-1.32654,0.308872,1.42857
1535253225173008,-1.32559,0.327383,1.42982
1535253225191056,-1.32432,0.345545,1.43095
1535253225210725,-1.32284,0.363383,1.43191
1535253225240753,-1.32038,0.380607,1.43254
1535253225251217,-1.31712,0.397371,1.43349
1535253225270773,-1.31463,0.414605,1.43507
1535253225293328,-1.31308,0.432283,1.43711
1535253225310875,-1.31194,0.450006,1.43886
1535253225331931,-1.3099,0.467263,1.44074
1535253225355995,-1.30684,0.484419,1.44287
1535253225371081,-1.30337,0.502006,1.44466
1535253225392093,-1.30073,0.519762,1.44729
1535253225413147,-1.29827,0.537381,1.45043
1535253225431195,-1.29654,0.554706,1.45338
1535253225452252,-1.2957,0.571548,1.45549
1535253225473307,-1.29371,0.58765,1.45702
1535253225490854,-1.29158,0.603433,1.45865
1535253225517929,-1.2911,0.61979,1.46119
1535253225532966,-1.29074,0.635681,1.4641
1535253225566059,-1.28853,0.651119,1.46751
1535253225572070,-1.28525,0.666226,1.47099
1535253225593125,-1.28236,0.6812,1.47443
1535253225611227,-1.27906,0.696204,1.47831
1535253225631280,-1.27559,0.711304,1.48272
1535253225654293,-1.27284,0.726799,1.48758
1535253225670834,-1.27114,0.742265,1.49203
1535253225692898,-1.26829,0.757837,1.49606
1535253225713948,-1.26376,0.773776,1.50055
1535253225730516,-1.25937,0.790834,1.50568
1535253225753107,-1.25585,0.808618,1.51162
1535253225773606,-1.25234,0.825513,1.51725
1535253225790205,-1.24693,0.841525,1.52281
1535253225820357,-1.2402,0.8578,1.52934
1535253225833821,-1.23443,0.873595,1.53606
1535253225850311,-1.22937,0.888527,1.54287
1535253225872921,-1.22378,0.902231,1.5491
1535253225901445,-1.21687,0.91519,1.55603
1535253225910470,-1.20993,0.92821,1.56382
1535253225933071,-1.20423,0.940794,1.57158
1535253225953624,-1.19902,0.952817,1.57827
1535253225970672,-1.19295,0.963642,1.58473
1535253225992729,-1.18695,0.974729,1.59154
1535253226013812,-1.18226,0.985484,1.59841
1535253226030331,-1.17675,0.996334,1.60626
1535253226052889,-1.17121,1.00696,1.61426
1535253226073946,-1.16426,1.01783,1.62269
1535253226090491,-1.15645,1.02841,1.6307
1535253226119065,-1.148,1.03952,1.63987
1535253226135181,-1.13879,1.0509,1.65122
1535253226157673,-1.13003,1.06145,1.66328
1535253226173712,-1.12153,1.07072,1.67309
1535253226193764,-1.11167,1.0801,1.68232
1535253226210307,-1.10062,1.08933,1.69417
1535253226232923,-1.08985,1.09832,1.70745
1535253226253977,-1.08,1.10606,1.71911
1535253226270469,-1.07153,1.11374,1.72866
1535253226293059,-1.06138,1.12153,1.7382
1535253226314112,-1.04964,1.13029,1.7515
1535253226330128,-1.03804,1.1381,1.76613
1535253226352687,-1.02682,1.14495,1.77965
1535253226373747,-1.01286,1.1527,1.79442
1535253226397983,-0.995939,1.16033,1.81233
1535253226412849,-0.981047,1.16672,1.82997
1535253226433944,-0.967149,1.17194,1.84606
1535253226449569,-0.950809,1.17731,1.86408
1535253226480528,-0.934264,1.18198,1.88253
1535253226494069,-0.91798,1.18607,1.90101
1535253226509605,-0.905103,1.18953,1.91636
1535253226532672,-0.894669,1.19264,1.92862
1535253226554224,-0.887616,1.19572,1.93712
1535253226576282,-0.88355,1.19745,1.94179
1535253226600347,-0.88356,1.199,1.94275
1535253226613928,-0.888738,1.19893,1.93827
1535253226630928,-0.895693,1.19716,1.93007
1535253226653491,-0.902492,1.19454,1.92188
1535253226675560,-0.912899,1.19033,1.91146
1535253226689583,-0.924997,1.18507,1.89862
1535253226712648,-0.934263,1.17812,1.88728
1535253226735207,-0.944297,1.16826,1.87737
1535253226756261,-0.958155,1.15757,1.86515
1535253226778866,-0.975428,1.14596,1.84705
1535253226795366,-0.995543,1.13355,1.82486
1535253226816466,-1.01657,1.12052,1.80214
1535253226832966,-1.03741,1.10695,1.77975
1535253226863058,-1.05665,1.09345,1.75823
1535253226876585,-1.07368,1.08053,1.73978
1535253226900145,-1.08907,1.06804,1.72334
1535253226915185,-1.10501,1.05431,1.70554
1535253226936242,-1.11884,1.03981,1.68949
1535253226952787,-1.12954,1.02523,1.67569
1535253226975358,-1.1404,1.01016,1.66328
1535253226997907,-1.14966,0.994153,1.65095
1535253227012945,-1.15898,0.977541,1.63934
1535253227035505,-1.16826,0.960238,1.6293
1535253227064124,-1.17726,0.942332,1.61992
1535253227072664,-1.18489,0.924927,1.61136
1535253227095312,-1.18987,0.908435,1.60293
1535253227116381,-1.19476,0.891403,1.59539
1535253227132763,-1.20152,0.873647,1.58933
1535253227155324,-1.20751,0.856147,1.58334
1535253227176379,-1.21254,0.839589,1.57769
1535253227206488,-1.21626,0.822962,1.57212
1535253227215497,-1.22086,0.805947,1.56629
1535253227236572,-1.2253,0.789451,1.56077
1535253227252581,-1.23005,0.773236,1.55604
1535253227275144,-1.23469,0.757058,1.55053
1535253227296199,-1.2392,0.73963,1.5457
1535253227312741,-1.24418,0.721732,1.54033
1535253227335324,-1.24774,0.704545,1.53543
1535253227356357,-1.24973,0.68742,1.53115
1535253227372401,-1.25206,0.669884,1.52733
1535253227395467,-1.25497,0.652648,1.52462
1535253227416518,-1.25869,0.635774,1.52185
1535253227432063,-1.26144,0.61894,1.51877
1535253227455120,-1.26319,0.601121,1.51574
1535253227483735,-1.26526,0.583815,1.51243
1535253227506260,-1.26832,0.567326,1.5103
1535253227515282,-1.27155,0.550658,1.50812
1535253227536380,-1.27295,0.533889,1.50567
1535253227560400,-1.27404,0.51772,1.50351
1535253227575439,-1.27682,0.501941,1.50115
1535253227598000,-1.27886,0.486485,1.49879
1535253227612042,-1.27989,0.471043,1.49736
1535253227642622,-1.27975,0.455444,1.49564
1535253227657660,-1.27999,0.440147,1.49406
1535253227672198,-1.28151,0.425336,1.49311
1535253227695325,-1.28289,0.410367,1.49111
1535253227717824,-1.28474,0.395222,1.48916
1535253227738918,-1.28668,0.380093,1.4868
1535253227754956,-1.28872,0.365122,1.48436
1535253227793556,-1.28987,0.350479,1.48208
1535253227799073,-1.2923,0.335791,1.48026
1535253227815115,-1.29484,0.32112,1.47851
1535253227837707,-1.29618,0.306832,1.47718
1535253227858817,-1.29692,0.292623,1.47574
1535253227875277,-1.29716,0.27875,1.47491
1535253227898102,-1.29764,0.264628,1.47444
1535253227918902,-1.29917,0.250794,1.47411
1535253227935443,-1.30144,0.237435,1.47404
1535253227957996,-1.30239,0.224388,1.47329
1535253227980556,-1.30245,0.211547,1.4724
1535253227995095,-1.30238,0.199133,1.47185
1535253228017654,-1.30463,0.187408,1.47195
1535253228039212,-1.30681,0.176231,1.47153
1535253228061305,-1.30724,0.16471,1.4707
1535253228077862,-1.30609,0.153461,1.46967
1535253228098906,-1.30652,0.142463,1.47011
1535253228114915,-1.30781,0.131865,1.47028
1535253228137978,-1.30908,0.121107,1.46977
1535253228159032,-1.309,0.11047,1.469
1535253228175577,-1.30946,0.0999662,1.46879
1535253228198137,-1.31085,0.0896926,1.46901
1535253228219194,-1.31176,0.0794365,1.46879
1535253228235310,-1.31161,0.0690209,1.46827
1535253228257798,-1.31159,0.0584273,1.46837
1535253228278848,-1.31215,0.0480518,1.4682
1535253228294891,-1.31291,0.0379619,1.46776
1535253228317958,-1.31294,0.0275237,1.46695
1535253228340515,-1.31235,0.0170139,1.46603
1535253228354806,-1.31194,0.00699815,1.46509
1535253228378152,-1.312,-0.00250981,1.46417
1535253228398668,-1.31216,-0.0127652,1.46332
1535253228414714,-1.31311,-0.0231635,1.46277
1535253228437772,-1.31421,-0.0331328,1.46266
1535253228458901,-1.31557,-0.0433043,1.4627
1535253228474871,-1.31737,-0.0536727,1.46295
1535253228497936,-1.31818,-0.0631732,1.46321
1535253228519105,-1.31837,-0.071938,1.46316
1535253228534546,-1.31839,-0.0805041,1.4632
1535253228557918,-1.31832,-0.0886204,1.46294
1535253228580687,-1.31961,-0.0962489,1.46326
1535253228594707,-1.32104,-0.103112,1.46332
1535253228618269,-1.32238,-0.109737,1.46295
1535253228640328,-1.32329,-0.116394,1.46252
1535253228661454,-1.32357,-0.122693,1.46195
1535253228678033,-1.32429,-0.128559,1.46162
1535253228700490,-1.32537,-0.134161,1.4611
1535253228714526,-1.32634,-0.139719,1.46071
1535253228738132,-1.327,-0.144975,1.46003
1535253228760162,-1.32743,-0.150059,1.45949
1535253228774720,-1.32753,-0.154677,1.45876
1535253228797746,-1.32755,-0.159254,1.45829
1535253228820306,-1.32764,-0.16333,1.45759
1535253228834847,-1.32964,-0.167232,1.45688
1535253228857930,-1.33143,-0.170774,1.45633
1535253228880579,-1.33144,-0.174675,1.4558
1535253228894580,-1.33135,-0.178694,1.45528
1535253228918163,-1.33227,-0.182189,1.45466
1535253228940227,-1.33294,-0.185371,1.45405
1535253228954817,-1.33287,-0.188744,1.45381
1535253228977827,-1.33269,-0.191556,1.4536
1535253229000387,-1.33305,-0.193596,1.45341
1535253229021558,-1.33331,-0.195269,1.45336
1535253229037987,-1.33342,-0.196128,1.4532
1535253229060572,-1.33317,-0.195597,1.45298
1535253229081642,-1.33305,-0.194384,1.45326
1535253229097649,-1.33248,-0.192332,1.45346
1535253229120705,-1.33189,-0.18987,1.45333
1535253229148884,-1.3307,-0.187056,1.45296
1535253229157803,-1.33054,-0.183154,1.45299
1535253229180404,-1.32978,-0.177574,1.45264
1535253229201422,-1.32695,-0.171864,1.45214
1535253229217479,-1.32127,-0.166123,1.45197
1535253229240527,-1.31434,-0.160756,1.45284
1535253229261581,-1.30537,-0.155467,1.45409
1535253229277127,-1.29363,-0.149718,1.45562
1535253229300186,-1.28077,-0.141866,1.45741
1535253229321742,-1.26576,-0.13312,1.46036
1535253229337789,-1.24468,-0.123687,1.46394
1535253229360441,-1.21596,-0.11475,1.46824
1535253229381505,-1.18285,-0.101375,1.47411
1535253229403959,-1.14676,-0.0837214,1.4829
1535253229420504,-1.10478,-0.0631597,1.49353
1535253229449082,-1.05047,-0.042112,1.50421
1535253229457111,-0.988537,-0.0210184,1.51779
1535253229480515,-0.929624,-0.000540882,1.53754
1535253229502724,-0.876497,0.0177299,1.55831
1535253229523881,-0.826072,0.0334938,1.57492
1535253229540321,-0.778685,0.048778,1.58839
1535253229562884,-0.733374,0.0614286,1.59975
1535253229584060,-0.688274,0.0695658,1.60979
1535253229600483,-0.646631,0.0707743,1.61702
1535253229623042,-0.608094,0.0616196,1.61828
1535253229644098,-0.572608,0.0431231,1.61356
1535253229660140,-0.541065,0.0195471,1.60532
1535253229689224,-0.507102,-0.0158614,1.59868
1535253229706765,-0.474034,-0.0604216,1.58567
1535253229728003,-0.444382,-0.108407,1.56005
1535253229742885,-0.412087,-0.151986,1.52865
1535253229764026,-0.373671,-0.187222,1.50077
1535253229780463,-0.346015,-0.214945,1.47894
1535253229803026,-0.331385,-0.240398,1.45998
1535253229824080,-0.333517,-0.259236,1.44491
1535253229840328,-0.343159,-0.269419,1.43092
1535253229862680,-0.353772,-0.275119,1.41776
1535253229883738,-0.358365,-0.279823,1.40675
1535253229900280,-0.358459,-0.283007,1.39985
1535253229922864,-0.353536,-0.285096,1.3944
1535253229943937,-0.345543,-0.286565,1.38839
1535253229960442,-0.339908,-0.289764,1.38437
1535253229983001,-0.340046,-0.295479,1.38096
1535253230004158,-0.337691,-0.299372,1.37744
1535253230020600,-0.334778,-0.297827,1.3768
1535253230042658,-0.336735,-0.29906,1.37612
1535253230063795,-0.340303,-0.306001,1.37455
1535253230080483,-0.341216,-0.311739,1.37444
1535253230102818,-0.337815,-0.315382,1.37309
1535253230124040,-0.330299,-0.313721,1.36773
1535253230140451,-0.324021,-0.305184,1.36082
1535253230163060,-0.324844,-0.297087,1.35468
1535253230184101,-0.329548,-0.291223,1.3479
1535253230199784,-0.334553,-0.284846,1.34201
1535253230222644,-0.336845,-0.277946,1.34025
1535253230260243,-0.335692,-0.274699,1.34155
1535253230262834,-0.335246,-0.274344,1.34275
1535253230282797,-0.33321,-0.27531,1.34215
1535253230304105,-0.333938,-0.275294,1.34376
1535253230320436,-0.332848,-0.276379,1.34517
1535253230342958,-0.33224,-0.277292,1.34668
1535253230364015,-0.334678,-0.278175,1.34835
1535253230380057,-0.340035,-0.278298,1.34921
1535253230403121,-0.34389,-0.278289,1.3501
1535253230425190,-0.344016,-0.278523,1.35052
1535253230440222,-0.343488,-0.278761,1.35076
1535253230462910,-0.344983,-0.280508,1.3504
1535253230485336,-0.348409,-0.28271,1.35071
1535253230500375,-0.3499,-0.28425,1.35157
1535253230522977,-0.349705,-0.285867,1.35182
1535253230545539,-0.35096,-0.287311,1.35211
1535253230560126,-0.353512,-0.28915,1.35304
1535253230582598,-0.355098,-0.29068,1.35315
1535253230605158,-0.356151,-0.292622,1.35355
1535253230619698,-0.358081,-0.294173,1.35424
1535253230642755,-0.360154,-0.294633,1.35466
1535253230665321,-0.360834,-0.294392,1.35494
1535253230679877,-0.360027,-0.294221,1.35481
1535253230702914,-0.359468,-0.293893,1.3544
1535253230725477,-0.359962,-0.293837,1.35405
1535253230739551,-0.359163,-0.2937,1.35331
1535253230762574,-0.359163,-0.2937,1.35331
1535253230792825,-0.359755,-0.294056,1.35327
1535253230799674,-0.360431,-0.294686,1.35334
1535253230822771,-0.359512,-0.295402,1.35296
1535253230845297,-0.359421,-0.295506,1.35297
1535253230859844,-0.360381,-0.295673,1.35361
1535253230882896,-0.360569,-0.295697,1.35368
1535253230905489,-0.359798,-0.295636,1.35327
1535253230926512,-0.358956,-0.29536,1.35279
1535253230943053,-0.357928,-0.295547,1.35255
1535253230965615,-0.358018,-0.295646,1.35261
1535253230986272,-0.358018,-0.295646,1.35261
1535253231002785,-0.356759,-0.295182,1.35227
1535253231025343,-0.354883,-0.294367,1.3518
1535253231046401,-0.354138,-0.293807,1.3519
1535253231070557,-0.354701,-0.294164,1.35232
1535253231091611,-0.355598,-0.294923,1.3528
1535253231114083,-0.35619,-0.295279,1.35276
1535253231122603,-0.357811,-0.295936,1.35327
1535253231145163,-0.359331,-0.296842,1.35382
1535253231166267,-0.360377,-0.297496,1.35336
1535253231183128,-0.362156,-0.298357,1.35382
1535253231205456,-0.362529,-0.298653,1.3548
1535253231226488,-0.361739,-0.299109,1.35518
1535253231243152,-0.358924,-0.299774,1.35393
1535253231265589,-0.358575,-0.299934,1.35277
1535253231286647,-0.359044,-0.300575,1.35263
1535253231302694,-0.358696,-0.301469,1.35326
1535253231325249,-0.355196,-0.301675,1.35199
1535253231346307,-0.351249,-0.301821,1.34996
1535253231370393,-0.349918,-0.301634,1.34857
1535253231392960,-0.349908,-0.301529,1.34712
1535253231407972,-0.349673,-0.301493,1.34595
1535253231423012,-0.348088,-0.301146,1.34461
1535253231445419,-0.345802,-0.300576,1.34316
1535253231468635,-0.345016,-0.300288,1.34176
1535253231482676,-0.344562,-0.300404,1.34041
1535253231505235,-0.343069,-0.300356,1.33857
1535253231527788,-0.341963,-0.300498,1.33705
1535253231542327,-0.341388,-0.301498,1.33544
1535253231565388,-0.340852,-0.302347,1.33398
1535253231587947,-0.339173,-0.303076,1.33199
1535253231602260,-0.336845,-0.303855,1.32984
1535253231625385,-0.335782,-0.304444,1.32831
1535253231647606,-0.334792,-0.305278,1.32687
1535253231670172,-0.332923,-0.305972,1.32545
1535253231685385,-0.331215,-0.307242,1.32362
1535253231707771,-0.330066,-0.308358,1.32127
1535253231722307,-0.328912,-0.308551,1.31883
1535253231745366,-0.328423,-0.308863,1.31676
1535253231767926,-0.326932,-0.309425,1.3148
1535253231782466,-0.325496,-0.310294,1.31278
1535253231805527,-0.323639,-0.310853,1.31073
1535253231828087,-0.322788,-0.311565,1.30898
1535253231849143,-0.321795,-0.311868,1.30786
1535253231865188,-0.320459,-0.312138,1.3068
1535253231888109,-0.318581,-0.313129,1.30563
1535253231908812,-0.316982,-0.314044,1.30451
1535253231925351,-0.317186,-0.315218,1.30366
1535253231947959,-0.317127,-0.316089,1.30264
1535253231968960,-0.316957,-0.317208,1.30167
1535253231985505,-0.316456,-0.318438,1.30095
1535253232007688,-0.315495,-0.319191,1.29981
1535253232013120,-0.3152,-0.319436,1.29918
1535253232035903,-0.315338,-0.319844,1.29856
1535253232050677,-0.315682,-0.320221,1.29813
1535253232073237,-0.315403,-0.32032,1.29748
1535253232095798,-0.315315,-0.320218,1.29742
1535253232110838,-0.315315,-0.320218,1.29742
1535253232133401,-0.315439,-0.320775,1.29746
1535253232155456,-0.315349,-0.321308,1.29726
1535253232170497,-0.315929,-0.321997,1.29746
1535253232193057,-0.316695,-0.322714,1.29773
1535253232215616,-0.316695,-0.322714,1.29773
1535253232230658,-0.317375,-0.323011,1.29769
1535253232253216,-0.317932,-0.323096,1.29726
1535253232275854,-0.318473,-0.322982,1.29721
1535253232290845,-0.31856,-0.323084,1.29727
1535253232313441,-0.318476,-0.323011,1.29723
1535253232335969,-0.319029,-0.322722,1.29714
1535253232351022,-0.319487,-0.322536,1.29768
1535253232373545,-0.319491,-0.322565,1.2977
1535253232395597,-0.319858,-0.323229,1.29767
1535253232410636,-0.320761,-0.323666,1.29805
1535253232433197,-0.320761,-0.323666,1.29805
1535253232458765,-0.321381,-0.323858,1.29813
1535253232478328,-0.321354,-0.323862,1.29796
1535253232493401,-0.322046,-0.324302,1.29812
1535253232515925,-0.322046,-0.324302,1.29812
1535253232530963,-0.322045,-0.324274,1.29873
1535253232553516,-0.322135,-0.324376,1.29941
1535253232576118,-0.322048,-0.324275,1.29936
1535253232590726,-0.322048,-0.324275,1.29936
1535253232613218,-0.322135,-0.324376,1.29941
1535253232635736,-0.322132,-0.324348,1.29939
1535253232650783,-0.322104,-0.324352,1.29922
1535253232673438,-0.3217,-0.324848,1.29926
1535253232695898,-0.322045,-0.324564,1.29958
1535253232710941,-0.322132,-0.324666,1.29964
1535253232733545,-0.322033,-0.324739,1.29963
1535253232756064,-0.322033,-0.324739,1.29963
1535253232778039,-0.322118,-0.324177,1.2998
1535253232796085,-0.322281,-0.32392,1.29947
1535253232818796,-0.322181,-0.323676,1.29922
1535253232838189,-0.322132,-0.323077,1.29904
1535253232853240,-0.322018,-0.322345,1.29895
1535253232875891,-0.321985,-0.321917,1.29898
1535253232890930,-0.321194,-0.32155,1.29881
1535253232913391,-0.321095,-0.321624,1.2988
1535253232935962,-0.321378,-0.321234,1.29924
1535253232952000,-0.321082,-0.321136,1.2996
1535253232973553,-0.320363,-0.321018,1.29951
1535253233013157,-0.319858,-0.320925,1.29966
1535253233015387,-0.319858,-0.320925,1.29966
1535253233036720,-0.31957,-0.320307,1.2997
1535253233055771,-0.318906,-0.319863,1.29971
1535253233073817,-0.317842,-0.319367,1.29942
1535253233095875,-0.317101,-0.319281,1.29919
1535253233115930,-0.3172,-0.319208,1.2992
1535253233132008,-0.3172,-0.319208,1.2992
1535253233153543,-0.316573,-0.318902,1.29895
1535253233175666,-0.316573,-0.318902,1.29895
1535253233192142,-0.316573,-0.318902,1.29895
1535253233213193,-0.316573,-0.318902,1.29895
1535253233235753,-0.316228,-0.318523,1.29875
1535253233253796,-0.316228,-0.318523,1.29875
1535253233273349,-0.315514,-0.318433,1.29868
1535253233296009,-0.315514,-0.318433,1.29868
1535253233313458,-0.315514,-0.318433,1.29868
1535253233333509,-0.314759,-0.318176,1.29824
1535253233355567,-0.314084,-0.317907,1.2983
1535253233373650,-0.314084,-0.317907,1.2983
1535253233393206,-0.314084,-0.317907,1.2983
1535253233415821,-0.314084,-0.317907,1.2983
1535253233433811,-0.314084,-0.317907,1.2983
1535253233453400,-0.314084,-0.317907,1.2983
1535253233475918,-0.314084,-0.317907,1.2983
1535253233493466,-0.313256,-0.317719,1.29801
1535253233513518,-0.313256,-0.317719,1.29801
1535253233535587,-0.313256,-0.317719,1.29801
1535253233553626,-0.313256,-0.317719,1.29801
1535253233573691,-0.312615,-0.31756,1.29779
1535253233595745,-0.312615,-0.31756,1.29779
1535253233614286,-0.312615,-0.31756,1.29779
1535253233633458,-0.312519,-0.316999,1.29792
1535253233655984,-0.311791,-0.316738,1.29765
1535253233673946,-0.311795,-0.316766,1.29767
1535253233694499,-0.311791,-0.316738,1.29765
1535253233715572,-0.311795,-0.316766,1.29767
1535253233733644,-0.311708,-0.316664,1.29761
1535253233754674,-0.311708,-0.316664,1.29761
1535253233775835,-0.311336,-0.316607,1.29749
1535253233793902,-0.311336,-0.316607,1.29749
1535253233813475,-0.311435,-0.316534,1.29749
1535253233835899,-0.311336,-0.316607,1.29749
1535253233853425,-0.311336,-0.316607,1.29749
1535253233874984,-0.311253,-0.316533,1.29745
1535253233896039,-0.311253,-0.316533,1.29745
1535253233914087,-0.31125,-0.316505,1.29743
1535253233934699,-0.311253,-0.316533,1.29745
1535253233955705,-0.311253,-0.316533,1.29745
1535253233973744,-0.311253,-0.316533,1.29745
1535253233994800,-0.311253,-0.316533,1.29745
1535253234015905,-0.311253,-0.316533,1.29745
1535253234033579,-0.311253,-0.316533,1.29745
1535253234054959,-0.311067,-0.316505,1.29739
1535253234076016,-0.311067,-0.316505,1.29739
1535253234094077,-0.311166,-0.316432,1.2974
1535253234122141,-0.311166,-0.316432,1.2974
1535253234135731,-0.311067,-0.316505,1.29739
1535253234169529,-0.311067,-0.316505,1.29739
1535253234174782,-0.311067,-0.316505,1.29739
1535253234195923,-0.31098,-0.316403,1.29734
1535253234213379,-0.31098,-0.316403,1.29734
1535253234236443,-0.31098,-0.316403,1.29734
1535253234255996,-0.31098,-0.316403,1.29734
1535253234273543,-0.31098,-0.316403,1.29734
1535253234296101,-0.31098,-0.316403,1.29734
1535253234315957,-0.310894,-0.316301,1.29728
1535253234333906,-0.310894,-0.316301,1.29728
1535253234356266,-0.310894,-0.316301,1.29728
1535253234375867,-0.310894,-0.316301,1.29728
1535253234393859,-0.310795,-0.316374,1.29727
1535253234422442,-0.310821,-0.316371,1.29744
1535253234435974,-0.310735,-0.316269,1.29739
1535253234459540,-0.310735,-0.316269,1.29739
1535253234476087,-0.310735,-0.316269,1.29739
1535253234495632,-0.310651,-0.316195,1.29735
1535253234513701,-0.310651,-0.316195,1.29735
1535253234536243,-0.310552,-0.316268,1.29735
1535253234555792,-0.310651,-0.316195,1.29735
1535253234573839,-0.310565,-0.316093,1.2973
1535253234596006,-0.310565,-0.316093,1.2973
1535253234615951,-0.310565,-0.316093,1.2973
1535253234633498,-0.310565,-0.316093,1.2973
1535253234662316,-0.310465,-0.316167,1.29729
1535253234675614,-0.310379,-0.316065,1.29724
1535253234699739,-0.310379,-0.316065,1.29724
1535253234722242,-0.310379,-0.316065,1.29724
1535253234735772,-0.310379,-0.316065,1.29724
1535253234753818,-0.310379,-0.316065,1.29724
1535253234776378,-0.310292,-0.315963,1.29718
1535253234795931,-0.310292,-0.315963,1.29718
1535253234813479,-0.310193,-0.316036,1.29718
1535253234836081,-0.310193,-0.316036,1.29718
1535253234857147,-0.31011,-0.315962,1.29714
1535253234873710,-0.31011,-0.315962,1.29714
1535253234896196,-0.31011,-0.315962,1.29714
1535253234917255,-0.31011,-0.315962,1.29714
1535253234933798,-0.31011,-0.315962,1.29714
1535253234956356,-0.31011,-0.315962,1.29714
1535253234977412,-0.31011,-0.315962,1.29714
1535253234993526,-0.31011,-0.315962,1.29714
1535253235016128,-0.310023,-0.315861,1.29709
1535253235037079,-0.310023,-0.315861,1.29709
1535253235053615,-0.310023,-0.315861,1.29709
1535253235076256,-0.310023,-0.315861,1.29709
1535253235096494,-0.310023,-0.315861,1.29709
1535253235119075,-0.309937,-0.315759,1.29703
1535253235135517,-0.309937,-0.315759,1.29703
1535253235158076,-0.309937,-0.315759,1.29703
1535253235172123,-0.309937,-0.315759,1.29703
1535253235195175,-0.309937,-0.315759,1.29703
1535253235217735,-0.309937,-0.315759,1.29703
1535253235238902,-0.309937,-0.315759,1.29703
1535253235255338,-0.309838,-0.315832,1.29702
1535253235278066,-0.309937,-0.315759,1.29703
1535253235299129,-0.30985,-0.315657,1.29698
1535253235315170,-0.30985,-0.315657,1.29698
1535253235338048,-0.309751,-0.31573,1.29697
1535253235352363,-0.309751,-0.31573,1.29697
1535253235375566,-0.309751,-0.31573,1.29697
1535253235397688,-0.309751,-0.31573,1.29697
1535253235412169,-0.30985,-0.315657,1.29698
1535253235435507,-0.309751,-0.31573,1.29697
1535253235457794,-0.309751,-0.31573,1.29697
1535253235472347,-0.309751,-0.31573,1.29697
1535253235495391,-0.309751,-0.31573,1.29697
1535253235517949,-0.309751,-0.31573,1.29697
1535253235532486,-0.309664,-0.315629,1.29692
1535253235555547,-0.309664,-0.315629,1.29692
1535253235578109,-0.309664,-0.315629,1.29692
1535253235592146,-0.309664,-0.315629,1.29692
1535253235615205,-0.309664,-0.315629,1.29692
1535253235637765,-0.309691,-0.315625,1.29708
1535253235658823,-0.309668,-0.315656,1.29694
1535253235675377,-0.309607,-0.315551,1.29705
1535253235697925,-0.309581,-0.315555,1.29688
1535253235720487,-0.309607,-0.315551,1.29705
1535253235741663,-0.309482,-0.315628,1.29687
1535253235758152,-0.309607,-0.315551,1.29705
1535253235779143,-0.309521,-0.315449,1.297
1535253235795187,-0.309422,-0.315522,1.29699
1535253235817896,-0.309422,-0.315522,1.29699
1535253235838800,-0.309521,-0.315449,1.297
1535253235855342,-0.309422,-0.315522,1.29699
1535253235877903,-0.309434,-0.315348,1.29694
1535253235898959,-0.309434,-0.315348,1.29694
1535253235915503,-0.309434,-0.315348,1.29694
1535253235938064,-0.309434,-0.315348,1.29694
1535253235959120,-0.309434,-0.315348,1.29694
1535253235975667,-0.309434,-0.315348,1.29694
1535253235997726,-0.309434,-0.315348,1.29694
1535253236019285,-0.309348,-0.315246,1.29689
1535253236035324,-0.309249,-0.315319,1.29688
1535253236057885,-0.309348,-0.315246,1.29689
1535253236086464,-0.309348,-0.315246,1.29689
1535253236095483,-0.309348,-0.315246,1.29689
1535253236124058,-0.309249,-0.315319,1.29688
1535253236147620,-0.309249,-0.315319,1.29688
1535253236155140,-0.309261,-0.315144,1.29683
1535253236177776,-0.309162,-0.315217,1.29682
1535253236200358,-0.309162,-0.315217,1.29682
1535253236214874,-0.309076,-0.315116,1.29677
1535253236237865,-0.309076,-0.315116,1.29677
1535253236260423,-0.309076,-0.315116,1.29677
1535253236274458,-0.309162,-0.315217,1.29682
1535253236298021,-0.309162,-0.315217,1.29682
1535253236320079,-0.309175,-0.315042,1.29678
1535253236334762,-0.309175,-0.315042,1.29678
1535253236357719,-0.309091,-0.314968,1.29674
1535253236380343,-0.308992,-0.315041,1.29674
1535253236394790,-0.308992,-0.315041,1.29674
1535253236417843,-0.308992,-0.315041,1.29674
1535253236440414,-0.308932,-0.314936,1.29685
1535253236454940,-0.308932,-0.314936,1.29685
1535253236478116,-0.308906,-0.31494,1.29668
1535253236500060,-0.308276,-0.314924,1.29666
1535253236514597,-0.308177,-0.314997,1.29665
1535253236537659,-0.308091,-0.314895,1.2966
1535253236560303,-0.308216,-0.314819,1.29677
1535253236574767,-0.308091,-0.314895,1.2966
1535253236597819,-0.308091,-0.314895,1.2966
1535253236620882,-0.308094,-0.314923,1.29662
1535253236641539,-0.308008,-0.314821,1.29656
1535253236658084,-0.308034,-0.314818,1.29673
1535253236680544,-0.308034,-0.314818,1.29673
1535253236701612,-0.308034,-0.314818,1.29673
1535253236717636,-0.308034,-0.314818,1.29673
1535253236740198,-0.308034,-0.314818,1.29673
1535253236761357,-0.307947,-0.314716,1.29668
1535253236777808,-0.307947,-0.314716,1.29668
1535253236800363,-0.307947,-0.314716,1.29668
1535253236821423,-0.307947,-0.314716,1.29668
1535253236837960,-0.307947,-0.314716,1.29668
1535253236860579,-0.307947,-0.314716,1.29668
1535253236881636,-0.307861,-0.314614,1.29662
1535253236897678,-0.307947,-0.314716,1.29668
1535253236920238,-0.307861,-0.314614,1.29662
1535253236941300,-0.307861,-0.314614,1.29662
1535253236957898,-0.307861,-0.314614,1.29662
1535253236980398,-0.307775,-0.314512,1.29657
1535253237001462,-0.307775,-0.314512,1.29657
1535253237018001,-0.307775,-0.314512,1.29657
1535253237040558,-0.307775,-0.314512,1.29657
1535253237063119,-0.307775,-0.314512,1.29657
1535253237078160,-0.307688,-0.314411,1.29651
1535253237100216,-0.307589,-0.314484,1.29651
1535253237122777,-0.307589,-0.314484,1.29651
1535253237137816,-0.307506,-0.31441,1.29647
1535253237160746,-0.307506,-0.31441,1.29647
1535253237182934,-0.307407,-0.314483,1.29647
1535253237196973,-0.30732,-0.314381,1.29641
1535253237221040,-0.30732,-0.314381,1.29641
1535253237243098,-0.30732,-0.314381,1.29641
1535253237257132,-0.30732,-0.314381,1.29641
1535253237280195,-0.307221,-0.314454,1.2964
1535253237302756,-0.307234,-0.31428,1.29636
1535253237317293,-0.307135,-0.314353,1.29635
1535253237340355,-0.307135,-0.314353,1.29635
1535253237362915,-0.307048,-0.314251,1.2963
1535253237377048,-0.307048,-0.314251,1.2963
1535253237400514,-0.307048,-0.314251,1.2963
1535253237423108,-0.307048,-0.314251,1.2963
1535253237437122,-0.307048,-0.314251,1.2963
1535253237460180,-0.306962,-0.314149,1.29624
1535253237482733,-0.306965,-0.314177,1.29626
1535253237497775,-0.306965,-0.314177,1.29626
1535253237520336,-0.306866,-0.31425,1.29625
1535253237542904,-0.306866,-0.31425,1.29625
1535253237563948,-0.306866,-0.31425,1.29625
1535253237580494,-0.30678,-0.314148,1.2962
1535253237602705,-0.30678,-0.314148,1.2962
1535253237624108,-0.30678,-0.314148,1.2962
1535253237640150,-0.30678,-0.314148,1.2962
1535253237662716,-0.30678,-0.314148,1.2962
1535253237683843,-0.306694,-0.314047,1.29615
1535253237700311,-0.30672,-0.314043,1.29632
1535253237730400,-0.30672,-0.314043,1.29632
1535253237743930,-0.30672,-0.314043,1.29632
1535253237760493,-0.306881,-0.313756,1.29597
1535253237783030,-0.306885,-0.313784,1.29599
1535253237804087,-0.306798,-0.313682,1.29593
1535253237820130,-0.306699,-0.313755,1.29593
1535253237842699,-0.306699,-0.313755,1.29593
1535253237864251,-0.306699,-0.313755,1.29593
1535253237880294,-0.306613,-0.313653,1.29587
1535253237902972,-0.306613,-0.313653,1.29587
1535253237924027,-0.306613,-0.313653,1.29587
1535253237940452,-0.306613,-0.313653,1.29587
1535253237963012,-0.306613,-0.313653,1.29587
1535253237984309,-0.306613,-0.313653,1.29587
1535253238000145,-0.306514,-0.313727,1.29586
1535253238029188,-0.306613,-0.313653,1.29587
1535253238051250,-0.306699,-0.313755,1.29593
1535253238060279,-0.306613,-0.313653,1.29587
1535253238082830,-0.306514,-0.313727,1.29586
1535253238105399,-0.306514,-0.313727,1.29586
1535253238126551,-0.306613,-0.313653,1.29587
1535253238142989,-0.306613,-0.313653,1.29587
1535253238165628,-0.306613,-0.313653,1.29587
1535253238179586,-0.306613,-0.313653,1.29587
1535253238202946,-0.30671,-0.313899,1.29612
1535253238225214,-0.30671,-0.313899,1.29612
1535253238239749,-0.306793,-0.313973,1.29615
1535253238262808,-0.306793,-0.313973,1.29615
1535253238285370,-0.306793,-0.313973,1.29615
1535253238308497,-0.30671,-0.313899,1.29612
1535253238329089,-0.30671,-0.313899,1.29612
1535253238345538,-0.30671,-0.313899,1.29612
1535253238359577,-0.30671,-0.313899,1.29612
1535253238383128,-0.306706,-0.313872,1.2961
1535253238405187,-0.30671,-0.313899,1.29612
1535253238419799,-0.30671,-0.313899,1.29612
1535253238442987,-0.30671,-0.313899,1.29612
1535253238465349,-0.30671,-0.313899,1.29612
1535253238486504,-0.30671,-0.313899,1.29612
1535253238502955,-0.30671,-0.313899,1.29612
1535253238525507,-0.30671,-0.313899,1.29612
1535253238546624,-0.30671,-0.313899,1.29612
1535253238563109,-0.30671,-0.313899,1.29612
1535253238585167,-0.30661,-0.313972,1.29611
1535253238606273,-0.30661,-0.313972,1.29611
1535253238622766,-0.30661,-0.313972,1.29611
1535253238645325,-0.30661,-0.313972,1.29611
1535253238666385,-0.30661,-0.313972,1.29611
1535253238682931,-0.30661,-0.313972,1.29611
1535253238705486,-0.30671,-0.313899,1.29612
1535253238726550,-0.30671,-0.313899,1.29612
1535253238743103,-0.30671,-0.313899,1.29612
1535253238765657,-0.306623,-0.313797,1.29607
1535253238786207,-0.30671,-0.313899,1.29612
1535253238802790,-0.30671,-0.313899,1.29612
1535253238825812,-0.30671,-0.313899,1.29612
1535253238863407,-0.306623,-0.313797,1.29607
1535253238866004,-0.306623,-0.313797,1.29607
1535253238885968,-0.306623,-0.313797,1.29607
1535253238906532,-0.306623,-0.313797,1.29607
1535253238922570,-0.306623,-0.313797,1.29607
1535253238945646,-0.306623,-0.313797,1.29607
1535253238968304,-0.306623,-0.313797,1.29607
1535253238983245,-0.306623,-0.313797,1.29607
1535253239005301,-0.306623,-0.313797,1.29607
1535253239027862,-0.306537,-0.313696,1.29601
1535253239042901,-0.306537,-0.313696,1.29601
1535253239065460,-0.306537,-0.313696,1.29601
1535253239088020,-0.306537,-0.313696,1.29601
1535253239102057,-0.306537,-0.313696,1.29601
1535253239125118,-0.306537,-0.313696,1.29601
1535253239147678,-0.306537,-0.313696,1.29601
1535253239162220,-0.306537,-0.313696,1.29601
1535253239185353,-0.306563,-0.313692,1.29618
1535253239207840,-0.306563,-0.313692,1.29618
1535253239222458,-0.30645,-0.313594,1.29596
1535253239245444,-0.30645,-0.313594,1.29596
1535253239267998,-0.306477,-0.313591,1.29613
1535253239282036,-0.306477,-0.313591,1.29613
1535253239305099,-0.306378,-0.313664,1.29612
1535253239328029,-0.306477,-0.313591,1.29613
1535253239342199,-0.30639,-0.313489,1.29607
1535253239365533,-0.30639,-0.313489,1.29607
1535253239387589,-0.306291,-0.313562,1.29607
1535253239408795,-0.30639,-0.313489,1.29607
1535253239425340,-0.30639,-0.313489,1.29607
1535253239447898,-0.30639,-0.313489,1.29607
1535253239468453,-0.306304,-0.313387,1.29602
1535253239485501,-0.306304,-0.313387,1.29602
1535253239508060,-0.306304,-0.313387,1.29602
1535253239529124,-0.306304,-0.313387,1.29602
1535253239545163,-0.306304,-0.313387,1.29602
1535253239568220,-0.306221,-0.313313,1.29599
1535253239589289,-0.306221,-0.313313,1.29599
1535253239605329,-0.306221,-0.313313,1.29599
1535253239628005,-0.306135,-0.313211,1.29593
1535253239649058,-0.306135,-0.313211,1.29593
1535253239671626,-0.306135,-0.313211,1.29593
1535253239687663,-0.306135,-0.313211,1.29593
1535253239708768,-0.306135,-0.313211,1.29593
1535253239725402,-0.306135,-0.313211,1.29593
1535253239747918,-0.306135,-0.313211,1.29593
1535253239768883,-0.306135,-0.313211,1.29593
1535253239785422,-0.306135,-0.313211,1.29593
1535253239807986,-0.306135,-0.313211,1.29593
1535253239829104,-0.306048,-0.313109,1.29588
1535253239845584,-0.305949,-0.313183,1.29587
1535253239867641,-0.306048,-0.313109,1.29588
1535253239890200,-0.306048,-0.313109,1.29588
1535253239905241,-0.306048,-0.313109,1.29588
1535253239927806,-0.306048,-0.313109,1.29588
1535253239950865,-0.305863,-0.313081,1.29582
1535253239965404,-0.305863,-0.313081,1.29582
1535253239993990,-0.305962,-0.313008,1.29582
1535253240010522,-0.305962,-0.313008,1.29582
1535253240024558,-0.305962,-0.313008,1.29582
1535253240047624,-0.305777,-0.312979,1.29576
1535253240070180,-0.305803,-0.312976,1.29593
1535253240085022,-0.305803,-0.312976,1.29593
1535253240107868,-0.305803,-0.312976,1.29593
1535253240130341,-0.305803,-0.312976,1.29593
1535253240144878,-0.305717,-0.312874,1.29588
1535253240167939,-0.305717,-0.312874,1.29588
1535253240190498,-0.305717,-0.312874,1.29588
1535253240204537,-0.305717,-0.312874,1.29588
1535253240227605,-0.305717,-0.312874,1.29588
1535253240250661,-0.305717,-0.312874,1.29588
1535253240271720,-0.305816,-0.312801,1.29589
1535253240287758,-0.305729,-0.312699,1.29583
1535253240310320,-0.305729,-0.312699,1.29583
1535253240324857,-0.305729,-0.312699,1.29583
1535253240347919,-0.30616,-0.312861,1.29584
1535253240370478,-0.306061,-0.312935,1.29583
1535253240391911,-0.306061,-0.312935,1.29583
1535253240408082,-0.306087,-0.312931,1.296
1535253240430640,-0.306186,-0.312858,1.29601
1535253240451707,-0.306186,-0.312858,1.29601
1535253240468240,-0.3061,-0.312756,1.29595
1535253240490297,-0.3061,-0.312756,1.29595
1535253240511353,-0.3061,-0.312756,1.29595
1535253240528398,-0.3061,-0.312756,1.29595
1535253240550457,-0.3061,-0.312756,1.29595
1535253240571193,-0.3061,-0.312756,1.29595
1535253240587737,-0.306199,-0.312683,1.29596
1535253240610298,-0.3061,-0.312756,1.29595
1535253240631350,-0.306186,-0.312858,1.29601
1535253240647899,-0.3061,-0.312756,1.29595
1535253240670456,-0.3061,-0.312756,1.29595
1535253240691564,-0.3061,-0.312756,1.29595
1535253240707555,-0.3061,-0.312756,1.29595
1535253240730115,-0.306199,-0.312683,1.29596
1535253240751171,-0.306199,-0.312683,1.29596
1535253240767946,-0.3061,-0.312756,1.29595
1535253240790567,-0.3061,-0.312756,1.29595
1535253240811402,-0.3061,-0.312756,1.29595
1535253240827945,-0.3061,-0.312756,1.29595
1535253240850448,-0.3061,-0.312756,1.29595
1535253240872996,-0.3061,-0.312756,1.29595
1535253240888037,-0.3061,-0.312756,1.29595
1535253240910103,-0.3061,-0.312756,1.29595
1535253240932655,-0.306186,-0.312858,1.29601
1535253240947276,-0.306186,-0.312858,1.29601
1535253240970254,-0.3061,-0.312756,1.29595
1535253240992821,-0.3061,-0.312756,1.29595
1535253241007353,-0.3061,-0.312756,1.29595
1535253241030417,-0.306186,-0.312858,1.29601
1535253241052670,-0.306186,-0.312858,1.29601
1535253241067011,-0.306186,-0.312858,1.29601
1535253241090573,-0.306186,-0.312858,1.29601
1535253241113140,-0.306186,-0.312858,1.29601
1535253241127174,-0.3061,-0.312756,1.29595
1535253241150252,-0.306186,-0.312858,1.29601
1535253241172922,-0.3061,-0.312756,1.29595
1535253241187359,-0.306186,-0.312858,1.29601
1535253241210411,-0.3061,-0.312756,1.29595
1535253241232972,-0.3061,-0.312756,1.29595
1535253241247015,-0.3061,-0.312756,1.29595
1535253241270338,-0.306199,-0.312683,1.29596
1535253241292639,-0.306199,-0.312683,1.29596
1535253241307176,-0.306285,-0.312785,1.29602
1535253241337750,-0.306285,-0.312785,1.29602
1535253241358812,-0.306199,-0.312683,1.29596
1535253241373847,-0.306199,-0.312683,1.29596
1535253241390544,-0.306199,-0.312683,1.29596
1535253241413058,-0.306199,-0.312683,1.29596
1535253241434130,-0.306199,-0.312683,1.29596
1535253241450574,-0.306199,-0.312683,1.29596
1535253241472620,-0.306199,-0.312683,1.29596
1535253241478245,-0.306199,-0.312683,1.29596
1535253241500829,-0.306199,-0.312683,1.29596
1535253241515835,-0.306199,-0.312683,1.29596
1535253241538292,-0.306199,-0.312683,1.29596
1535253241560847,-0.3061,-0.312756,1.29595
1535253241575900,-0.306199,-0.312683,1.29596
1535253241598511,-0.306199,-0.312683,1.29596
1535253241629528,-0.306199,-0.312683,1.29596
1535253241636170,-0.306199,-0.312683,1.29596
1535253241661205,-0.306199,-0.312683,1.29596
1535253241680668,-0.3061,-0.312756,1.29595
1535253241695748,-0.306199,-0.312683,1.29596
1535253241719768,-0.306199,-0.312683,1.29596
1535253241740833,-0.306199,-0.312683,1.29596
1535253241755869,-0.306199,-0.312683,1.29596
1535253241778445,-0.306199,-0.312683,1.29596
1535253241800985,-0.306199,-0.312683,1.29596
1535253241815581,-0.306113,-0.312581,1.29591
1535253241838586,-0.306113,-0.312581,1.29591
1535253241860693,-0.306113,-0.312581,1.29591
1535253241875808,-0.306014,-0.312654,1.2959
1535253241898566,-0.306113,-0.312581,1.29591
1535253241920925,-0.306113,-0.312581,1.29591
1535253241938472,-0.306113,-0.312581,1.29591
1535253241958528,-0.306113,-0.312581,1.29591
1535253241981082,-0.306113,-0.312581,1.29591
1535253241995630,-0.306027,-0.31248,1.29585
1535253242018177,-0.306027,-0.31248,1.29585
1535253242040737,-0.306027,-0.31248,1.29585
1535253242055777,-0.306027,-0.31248,1.29585
1535253242078335,-0.306027,-0.31248,1.29585
1535253242100897,-0.306027,-0.31248,1.29585
1535253242115433,-0.306027,-0.31248,1.29585
1535253242138272,-0.305841,-0.312451,1.29579
1535253242160557,-0.305841,-0.312451,1.29579
1535253242175760,-0.305845,-0.312479,1.29581
1535253242198390,-0.305841,-0.312451,1.29579
1535253242228743,-0.305845,-0.312479,1.29581
1535253242237260,-0.305841,-0.312451,1.29579
1535253242258315,-0.30594,-0.312378,1.2958
1535253242280893,-0.305944,-0.312405,1.29582
1535253242295933,-0.305857,-0.312304,1.29577
1535253242318494,-0.305857,-0.312304,1.29577
1535253242340560,-0.305857,-0.312304,1.29577
1535253242355645,-0.305758,-0.312377,1.29576
1535253242378204,-0.305857,-0.312304,1.29577
1535253242400829,-0.305857,-0.312304,1.29577
1535253242417258,-0.305857,-0.312304,1.29577
1535253242438381,-0.305857,-0.312304,1.29577
1535253242460900,-0.305698,-0.312272,1.29587
1535253242477418,-0.305698,-0.312272,1.29587
1535253242505494,-0.305612,-0.31217,1.29582
1535253242529063,-0.305612,-0.31217,1.29582
1535253242537077,-0.305612,-0.31217,1.29582
1535253242558189,-0.305526,-0.312068,1.29577
1535253242580847,-0.305526,-0.312068,1.29577
1535253242597336,-0.305526,-0.312068,1.29577
1535253242618349,-0.305526,-0.312068,1.29577
1535253242640906,-0.305526,-0.312068,1.29577
1535253242656948,-0.305526,-0.312068,1.29577
1535253242678506,-0.305526,-0.312068,1.29577
1535253242701073,-0.305526,-0.312068,1.29577
1535253242723218,-0.30544,-0.311967,1.29571
1535253242738230,-0.30544,-0.311967,1.29571
1535253242760823,-0.305353,-0.311865,1.29566
1535253242778807,-0.305353,-0.311865,1.29566
1535253242798396,-0.305357,-0.311892,1.29568
1535253242820889,-0.305357,-0.311892,1.29568
1535253242838600,-0.305357,-0.311892,1.29568
1535253242858486,-0.305357,-0.311892,1.29568
1535253242880544,-0.305258,-0.311965,1.29567
1535253242898658,-0.305357,-0.311892,1.29568
1535253242918147,-0.30527,-0.311791,1.29563
1535253242940705,-0.305171,-0.311864,1.29562
1535253242958751,-0.305258,-0.311965,1.29567
1535253242978416,-0.305171,-0.311864,1.29562
1535253243002382,-0.305171,-0.311864,1.29562
1535253243018913,-0.305171,-0.311864,1.29562
1535253243038465,-0.305171,-0.311864,1.29562
1535253243063619,-0.305171,-0.311864,1.29562
1535253243078571,-0.305072,-0.311937,1.29561
1535253243098132,-0.304986,-0.311835,1.29556
1535253243120727,-0.305085,-0.311762,1.29557
1535253243138731,-0.305085,-0.311762,1.29557
1535253243158289,-0.304986,-0.311835,1.29556
1535253243181024,-0.3049,-0.311734,1.2955
1535253243198893,-0.3049,-0.311734,1.2955
1535253243218451,-0.305085,-0.311762,1.29557
1535253243241003,-0.305085,-0.311762,1.29557
1535253243258613,-0.3049,-0.311734,1.2955
1535253243278237,-0.3049,-0.311734,1.2955
1535253243300669,-0.304913,-0.311559,1.29546
1535253243318827,-0.304814,-0.311632,1.29545
1535253243339782,-0.3049,-0.311734,1.2955
1535253243360918,-0.3049,-0.311734,1.2955
1535253243378369,-0.304214,-0.311294,1.29536
1535253243399926,-0.30483,-0.311484,1.29542
1535253243420983,-0.304843,-0.31131,1.29538
1535253243438531,-0.305152,-0.311576,1.29523
1535253243459598,-0.304523,-0.31156,1.29521
1535253243480641,-0.305704,-0.311634,1.29539
1535253243498689,-0.305657,-0.311354,1.29546
1535253243521250,-0.306378,-0.311588,1.29571
1535253243540800,-0.30464,-0.310679,1.29531
1535253243558848,-0.305316,-0.310975,1.29527
1535253243579403,-0.304491,-0.311446,1.29486
1535253243600493,-0.305053,-0.312305,1.29447
1535253243618545,-0.305139,-0.312406,1.29452
1535253243639604,-0.305053,-0.312305,1.29447
1535253243660741,-0.305238,-0.312333,1.29453
1535253243678668,-0.305092,-0.312126,1.29459
1535253243708748,-0.305483,-0.312467,1.29448
1535253243720900,-0.30521,-0.312997,1.29424
1535253243738827,-0.30521,-0.312997,1.29424
1535253243761387,-0.305529,-0.313408,1.29428
1535253243780938,-0.305615,-0.31351,1.29434
1535253243798539,-0.305628,-0.313335,1.29429
1535253243821052,-0.305529,-0.313408,1.29428
1535253243840601,-0.305529,-0.313408,1.29428
1535253243859148,-0.305529,-0.313408,1.29428
1535253243881709,-0.305529,-0.313408,1.29428
1535253243900763,-0.306254,-0.31367,1.29456
1535253243918812,-0.306168,-0.313568,1.2945
1535253243940865,-0.306168,-0.313568,1.2945
1535253243960918,-0.306168,-0.313568,1.2945
1535253243978517,-0.306595,-0.313703,1.29449
1535253244001027,-0.306595,-0.313703,1.29449
1535253244020675,-0.307212,-0.313895,1.29456
1535253244038627,-0.307212,-0.313895,1.29456
1535253244061186,-0.307125,-0.313793,1.29451
1535253244080783,-0.307125,-0.313793,1.29451
1535253244098787,-0.307125,-0.313793,1.29451
1535253244121347,-0.307125,-0.313793,1.29451
1535253244140898,-0.307152,-0.313789,1.29467
1535253244158946,-0.307152,-0.313789,1.29467
1535253244181004,-0.307165,-0.313615,1.29463
1535253244200623,-0.307251,-0.313716,1.29468
1535253244218609,-0.307251,-0.313716,1.29468
1535253244245678,-0.307251,-0.313716,1.29468
1535253244262223,-0.307165,-0.313615,1.29463
1535253244278765,-0.307165,-0.313615,1.29463
1535253244301343,-0.307165,-0.313615,1.29463
1535253244322380,-0.307065,-0.313688,1.29462
1535253244338427,-0.307065,-0.313688,1.29462
1535253244361073,-0.307631,-0.313571,1.29474
1535253244382038,-0.307631,-0.313571,1.29474
1535253244398582,-0.307631,-0.313571,1.29474
1535253244421149,-0.307545,-0.31347,1.29468
1535253244442199,-0.307545,-0.31347,1.29468
1535253244458751,-0.307545,-0.31347,1.29468
1535253244481348,-0.307545,-0.31347,1.29468
1535253244502361,-0.307545,-0.31347,1.29468
1535253244517432,-0.307545,-0.31347,1.29468
1535253244540459,-0.307545,-0.31347,1.29468
1535253244561557,-0.307459,-0.313368,1.29463
1535253244584076,-0.307459,-0.313368,1.29463
1535253244600122,-0.307459,-0.313368,1.29463
1535253244622688,-0.307459,-0.313368,1.29463
1535253244643834,-0.307485,-0.313364,1.2948
1535253244667808,-0.307485,-0.313364,1.2948
1535253244690359,-0.307485,-0.313364,1.2948
1535253244703898,-0.307459,-0.313368,1.29463
1535253244720451,-0.307584,-0.313291,1.29481
1535253244743000,-0.307485,-0.313364,1.2948
1535253244757037,-0.307398,-0.313263,1.29474
1535253244780601,-0.307398,-0.313263,1.29474
1535253244802860,-0.307398,-0.313263,1.29474
1535253244817398,-0.307398,-0.313263,1.29474
1535253244840457,-0.307398,-0.313263,1.29474
1535253244863524,-0.307312,-0.313161,1.29469
1535253244877058,-0.307312,-0.313161,1.29469
1535253244900620,-0.307312,-0.313161,1.29469
1535253244923179,-0.307316,-0.313188,1.29471
1535253244937231,-0.307312,-0.313161,1.29469
1535253244960280,-0.307229,-0.313087,1.29466
1535253244982838,-0.307229,-0.313087,1.29466
1535253244997376,-0.307229,-0.313087,1.29466
1535253245020440,-0.307229,-0.313087,1.29466
1535253245042997,-0.307143,-0.312985,1.2946
1535253245057034,-0.307143,-0.312985,1.2946
1535253245080544,-0.307143,-0.312985,1.2946
1535253245102662,-0.307242,-0.312912,1.29461
1535253245124217,-0.307242,-0.312912,1.29461
1535253245140386,-0.307156,-0.31281,1.29456
1535253245162819,-0.307156,-0.31281,1.29456
1535253245183989,-0.307242,-0.312912,1.29461
1535253245200416,-0.307156,-0.31281,1.29456
1535253245222978,-0.307156,-0.31281,1.29456
1535253245244073,-0.307156,-0.31281,1.29456
1535253245266600,-0.307096,-0.312705,1.29467
1535253245282642,-0.307096,-0.312705,1.29467
1535253245305205,-0.307096,-0.312705,1.29467
1535253245320378,-0.307009,-0.312603,1.29462
1535253245342796,-0.307009,-0.312603,1.29462
1535253245363851,-0.307009,-0.312603,1.29462
1535253245380396,-0.307009,-0.312603,1.29462
1535253245402956,-0.307009,-0.312603,1.29462
1535253245424018,-0.306923,-0.312501,1.29456
1535253245440556,-0.306923,-0.312501,1.29456
1535253245463116,-0.306923,-0.312501,1.29456
1535253245484180,-0.306923,-0.312501,1.29456
1535253245500229,-0.306923,-0.312501,1.29456
1535253245523279,-0.306837,-0.312399,1.29451
1535253245543839,-0.306837,-0.312399,1.29451
1535253245559873,-0.30684,-0.312427,1.29453
1535253245582937,-0.306754,-0.312325,1.29448
1535253245605511,-0.306754,-0.312325,1.29448
1535253245620536,-0.306754,-0.312325,1.29448
1535253245643178,-0.306754,-0.312325,1.29448
1535253245665239,-0.306754,-0.312325,1.29448
1535253245680277,-0.306668,-0.312223,1.29442
1535253245702839,-0.306668,-0.312223,1.29442
1535253245725475,-0.306668,-0.312223,1.29442
1535253245739939,-0.306668,-0.312223,1.29442
1535253245763079,-0.306582,-0.312122,1.29437
1535253245791640,-0.306582,-0.312122,1.29437
1535253245799668,-0.306582,-0.312122,1.29437
1535253245823234,-0.306582,-0.312122,1.29437
1535253245845291,-0.306608,-0.312118,1.29454
1535253245859822,-0.306522,-0.312016,1.29448
1535253245883485,-0.306522,-0.312016,1.29448
1535253245905443,-0.306522,-0.312016,1.29448
1535253245919480,-0.306522,-0.312016,1.29448
1535253245942542,-0.306522,-0.312016,1.29448
1535253245965622,-0.306435,-0.311915,1.29443
1535253245979825,-0.306435,-0.311915,1.29443
1535253246003204,-0.306435,-0.311915,1.29443
1535253246025448,-0.306435,-0.311915,1.29443
1535253246046327,-0.306349,-0.311813,1.29438
1535253246062977,-0.306349,-0.311813,1.29438
1535253246085542,-0.306349,-0.311813,1.29438
1535253246106600,-0.306349,-0.311813,1.29438
1535253246122642,-0.306267,-0.311739,1.29434
1535253246145192,-0.306267,-0.311739,1.29434
1535253246166796,-0.306267,-0.311739,1.29434
1535253246182794,-0.30618,-0.311637,1.29429
1535253246205359,-0.30618,-0.311637,1.29429
1535253246226409,-0.30618,-0.311637,1.29429
1535253246243050,-0.30618,-0.311637,1.29429
1535253246265511,-0.306094,-0.311535,1.29424
1535253246286592,-0.306094,-0.311535,1.29424
1535253246302637,-0.306094,-0.311535,1.29424
1535253246331216,-0.306094,-0.311535,1.29424
1535253246346753,-0.306008,-0.311433,1.29418
1535253246362795,-0.306008,-0.311433,1.29418
1535253246385360,-0.306008,-0.311433,1.29418
1535253246406416,-0.306008,-0.311433,1.29418
1535253246422955,-0.306008,-0.311433,1.29418
1535253246445516,-0.306034,-0.31143,1.29435
1535253246466580,-0.306034,-0.31143,1.29435
1535253246482614,-0.306008,-0.311433,1.29418
1535253246505174,-0.306008,-0.311433,1.29418
1535253246527736,-0.306034,-0.31143,1.29435
1535253246542773,-0.305948,-0.311328,1.2943
1535253246565390,-0.305948,-0.311328,1.2943
1535253246587962,-0.305948,-0.311328,1.2943
1535253246610455,-0.305948,-0.311328,1.2943
1535253246625493,-0.305948,-0.311328,1.2943
1535253246647581,-0.305948,-0.311328,1.2943
1535253246662110,-0.305948,-0.311328,1.2943
1535253246685388,-0.305862,-0.311226,1.29424
1535253246707731,-0.305862,-0.311226,1.29424
1535253246722271,-0.305862,-0.311226,1.29424
1535253246745330,-0.305862,-0.311226,1.29424
1535253246767890,-0.305862,-0.311226,1.29424
1535253246781931,-0.305862,-0.311226,1.29424
1535253246805142,-0.305862,-0.311226,1.29424
1535253246828080,-0.305862,-0.311226,1.29424
1535253246842247,-0.305865,-0.311254,1.29426
1535253246865189,-0.305779,-0.311152,1.29421
1535253246887742,-0.305779,-0.311152,1.29421
1535253246902355,-0.305779,-0.311152,1.29421
1535253246931355,-0.305865,-0.311254,1.29426
1535253246947899,-0.305865,-0.311254,1.29426
1535253246962125,-0.305779,-0.311152,1.29421
1535253246985195,-0.305862,-0.311226,1.29424
1535253247007746,-0.305779,-0.311152,1.29421
1535253247029305,-0.305779,-0.311152,1.29421
1535253247045347,-0.305779,-0.311152,1.29421
1535253247067907,-0.305779,-0.311152,1.29421
1535253247088966,-0.305779,-0.311152,1.29421
1535253247105506,-0.305779,-0.311152,1.29421
1535253247128105,-0.305862,-0.311226,1.29424
1535253247149124,-0.305862,-0.311226,1.29424
1535253247165172,-0.305779,-0.311152,1.29421
1535253247187724,-0.305865,-0.311254,1.29426
1535253247210285,-0.30568,-0.311225,1.2942
1535253247225329,-0.30634,-0.311669,1.29418
1535253247247887,-0.305701,-0.311509,1.29397
1535253247270445,-0.306442,-0.311623,1.29421
1535253247285483,-0.306442,-0.311623,1.29421
1535253247308050,-0.306442,-0.311623,1.29421
1535253247329101,-0.306442,-0.311623,1.29421
1535253247345149,-0.306442,-0.311623,1.29421
1535253247368706,-0.306442,-0.311623,1.29421
1535253247388873,-0.306442,-0.311623,1.29421
1535253247405314,-0.306442,-0.311623,1.29421
1535253247427864,-0.306442,-0.311623,1.29421
1535253247450426,-0.306442,-0.311623,1.29421
1535253247465478,-0.306439,-0.311596,1.29419
1535253247488529,-0.306283,-0.311245,1.29406
1535253247511589,-0.306369,-0.311347,1.29411
1535253247525624,-0.306369,-0.311347,1.29411
1535253247547684,-0.306283,-0.311245,1.29406
1535253247570472,-0.306283,-0.311245,1.29406
1535253247585282,-0.306283,-0.311245,1.29406
1535253247607842,-0.306283,-0.311245,1.29406
1535253247630469,-0.306197,-0.311143,1.294
1535253247644439,-0.306369,-0.311347,1.29411
1535253247668005,-0.306283,-0.311245,1.29406
1535253247690564,-0.306369,-0.311347,1.29411
1535253247704634,-0.306101,-0.311244,1.29402
1535253247727663,-0.306015,-0.311142,1.29396
1535253247750293,-0.306015,-0.311142,1.29396
1535253247764761,-0.306015,-0.311142,1.29396
1535253247787921,-0.306015,-0.311142,1.29396
1535253247810380,-0.305545,-0.311158,1.29383
1535253247824418,-0.305545,-0.311158,1.29383
1535253247847984,-0.305545,-0.311158,1.29383
1535253247870054,-0.305545,-0.311158,1.29383
1535253247884579,-0.305545,-0.311158,1.29383
1535253247907640,-0.305459,-0.311056,1.29378
1535253247931702,-0.305545,-0.311158,1.29383
1535253247951255,-0.305545,-0.311158,1.29383
1535253247967799,-0.305545,-0.311158,1.29383
1535253247990364,-0.305545,-0.311158,1.29383
1535253248011415,-0.305485,-0.311053,1.29395
1535253248027959,-0.305399,-0.310951,1.29389
1535253248050522,-0.305485,-0.311053,1.29395
1535253248079098,-0.305485,-0.311053,1.29395
1535253248088188,-0.305485,-0.311053,1.29395
1535253248110681,-0.305386,-0.311126,1.29394
1535253248131235,-0.305485,-0.311053,1.29395
1535253248147782,-0.305485,-0.311053,1.29395
1535253248170343,-0.305485,-0.311053,1.29395
1535253248191394,-0.305399,-0.310951,1.29389
1535253248207938,-0.305399,-0.310951,1.29389
1535253248230512,-0.305399,-0.310951,1.29389
1535253248251554,-0.305485,-0.311053,1.29395
1535253248267728,-0.305485,-0.311053,1.29395
1535253248297693,-0.305399,-0.310951,1.29389
1535253248311220,-0.305399,-0.310951,1.29389
1535253248327759,-0.305313,-0.310849,1.29384
1535253248350325,-0.305313,-0.310849,1.29384
1535253248371417,-0.3053,-0.311024,1.29389
1535253248387418,-0.305303,-0.311051,1.29391
1535253248410481,-0.305399,-0.310951,1.29389
1535253248432546,-0.305234,-0.310456,1.29357
1535253248447587,-0.304798,-0.309831,1.29313
1535253248470637,-0.304798,-0.309831,1.29313
1535253248494216,-0.304798,-0.309831,1.29313
1535253248507747,-0.304699,-0.309904,1.29312
1535253248530345,-0.304785,-0.310005,1.29317
1535253248553405,-0.304798,-0.309831,1.29313
1535253248567446,-0.304699,-0.309904,1.29312
1535253248596520,-0.304613,-0.309802,1.29307
1535253248612561,-0.304699,-0.309904,1.29312
1535253248627200,-0.304613,-0.309802,1.29307
1535253248650169,-0.304613,-0.309802,1.29307
1535253248672728,-0.304699,-0.309904,1.29312
1535253248687264,-0.304613,-0.309802,1.29307
1535253248710341,-0.304613,-0.309802,1.29307
1535253248732893,-0.304712,-0.309729,1.29307
1535253248747432,-0.304712,-0.309729,1.29307
1535253248770493,-0.304527,-0.3097,1.29301
1535253248792555,-0.304527,-0.3097,1.29301
1535253248807089,-0.304527,-0.3097,1.29301
1535253248830151,-0.304527,-0.3097,1.29301
1535253248852712,-0.304527,-0.3097,1.29301
1535253248873769,-0.304553,-0.309697,1.29318
1535253248890317,-0.304467,-0.309595,1.29313
1535253248912877,-0.304467,-0.309595,1.29313
1535253248933936,-0.304467,-0.309595,1.29313
1535253248950471,-0.304467,-0.309595,1.29313
1535253248973032,-0.304467,-0.309595,1.29313
1535253248994163,-0.30447,-0.309622,1.29315
1535253249010156,-0.30447,-0.309622,1.29315
1535253249032719,-0.304467,-0.309595,1.29313
1535253249053778,-0.30447,-0.309622,1.29315
1535253249070523,-0.304384,-0.30952,1.29309
1535253249092933,-0.304384,-0.30952,1.29309
1535253249113936,-0.30447,-0.309622,1.29315
1535253249130558,-0.304384,-0.30952,1.29309
1535253249153037,-0.304384,-0.30952,1.29309
1535253249174100,-0.304298,-0.309419,1.29304
1535253249190527,-0.304298,-0.309419,1.29304
1535253249212697,-0.304298,-0.309419,1.29304
1535253249233756,-0.304298,-0.309419,1.29304
1535253249256375,-0.304298,-0.309419,1.29304
1535253249272862,-0.304298,-0.309419,1.29304
1535253249294027,-0.304298,-0.309419,1.29304
1535253249310462,-0.304298,-0.309419,1.29304
1535253249333020,-0.304212,-0.309317,1.29299
1535253249355576,-0.304212,-0.309317,1.29299
1535253249370617,-0.304212,-0.309317,1.29299
1535253249406330,-0.304212,-0.309317,1.29299
1535253249415237,-0.304212,-0.309317,1.29299
1535253249430276,-0.304212,-0.309317,1.29299
1535253249452834,-0.304212,-0.309317,1.29299
1535253249475433,-0.304212,-0.309317,1.29299
1535253249489433,-0.304027,-0.309288,1.29293
1535253249512570,-0.304127,-0.309215,1.29293
1535253249535480,-0.304027,-0.309288,1.29293
1535253249549590,-0.304689,-0.30976,1.29292
1535253249573154,-0.304689,-0.30976,1.29292
1535253249595224,-0.304629,-0.309654,1.29304
1535253249609751,-0.304879,-0.30947,1.29274
1535253249632813,-0.304879,-0.30947,1.29274
1535253249655374,-0.304779,-0.309543,1.29274
1535253249676431,-0.304779,-0.309543,1.29274
1535253249692974,-0.304879,-0.30947,1.29274
1535253249721706,-0.304879,-0.30947,1.29274
1535253249729572,-0.304879,-0.30947,1.29274
1535253249752635,-0.304779,-0.309543,1.29274
1535253249775195,-0.304879,-0.30947,1.29274
1535253249789809,-0.304879,-0.30947,1.29274
1535253249812796,-0.304879,-0.30947,1.29274
1535253249835354,-0.304779,-0.309543,1.29274
1535253249856466,-0.304693,-0.309441,1.29268
1535253249872952,-0.304779,-0.309543,1.29274
1535253249895514,-0.304779,-0.309543,1.29274
1535253249916568,-0.304779,-0.309543,1.29274
1535253249932618,-0.304693,-0.309441,1.29268
1535253249955176,-0.304693,-0.309441,1.29268
1535253249983751,-0.304779,-0.309543,1.29274
1535253249992782,-0.304779,-0.309543,1.29274
1535253250015333,-0.304779,-0.309543,1.29274
1535253250036386,-0.304779,-0.309543,1.29274
1535253250052930,-0.304693,-0.309441,1.29268
1535253250075415,-0.304693,-0.309441,1.29268
1535253250096550,-0.304693,-0.309441,1.29268
1535253250113147,-0.304693,-0.309441,1.29268
1535253250135656,-0.304693,-0.309441,1.29268
1535253250156213,-0.304693,-0.309441,1.29268
1535253250172995,-0.304693,-0.309441,1.29268
1535253250195315,-0.304693,-0.309441,1.29268
1535253250216500,-0.304693,-0.309441,1.29268
1535253250233414,-0.304693,-0.309441,1.29268
1535253250261488,-0.304693,-0.309441,1.29268
1535253250276528,-0.304693,-0.309441,1.29268
1535253250293070,-0.304693,-0.309441,1.29268
1535253250322650,-0.304693,-0.309441,1.29268
1535253250337785,-0.304608,-0.309339,1.29263
1535253250352739,-0.304608,-0.309339,1.29263
1535253250375301,-0.304608,-0.309339,1.29263
1535253250397849,-0.304508,-0.309412,1.29262
1535253250412392,-0.304594,-0.309514,1.29268
1535253250435464,-0.304608,-0.309339,1.29263
1535253250457508,-0.304608,-0.309339,1.29263
1535253250472048,-0.304608,-0.309339,1.29263
1535253250495620,-0.304611,-0.309366,1.29265
1535253250517669,-0.304611,-0.309366,1.29265
1535253250538760,-0.304611,-0.309366,1.29265
1535253250555311,-0.304426,-0.309338,1.29259
1535253250577834,-0.304512,-0.309439,1.29264
1535253250592366,-0.304426,-0.309338,1.29259
1535253250615466,-0.304525,-0.309265,1.2926
1535253250638030,-0.304426,-0.309338,1.29259
1535253250652037,-0.304426,-0.309338,1.29259
1535253250675086,-0.304426,-0.309338,1.29259
1535253250697690,-0.304426,-0.309338,1.29259
1535253250712379,-0.304525,-0.309265,1.2926
1535253250735247,-0.304426,-0.309338,1.29259
1535253250757809,-0.30434,-0.309236,1.29254
1535253250772345,-0.30434,-0.309236,1.29254
1535253250796196,-0.30434,-0.309236,1.29254
1535253250817977,-0.304439,-0.309163,1.29254
1535253250839048,-0.304439,-0.309163,1.29254
1535253250855569,-0.304439,-0.309163,1.29254
1535253250877756,-0.304439,-0.309163,1.29254
1535253250898682,-0.304465,-0.309159,1.29271
1535253250915227,-0.304465,-0.309159,1.29271
1535253250937786,-0.304379,-0.309058,1.29266
1535253250958872,-0.304379,-0.309058,1.29266
1535253250965860,-0.304465,-0.309159,1.29271
1535253250980401,-0.304465,-0.309159,1.29271
1535253251002959,-0.304379,-0.309058,1.29266
1535253251025584,-0.304379,-0.309058,1.29266
1535253251040837,-0.304379,-0.309058,1.29266
1535253251072147,-0.304379,-0.309058,1.29266
1535253251094703,-0.304379,-0.309058,1.29266
1535253251100716,-0.304379,-0.309058,1.29266
1535253251123278,-0.304379,-0.309058,1.29266
1535253251145839,-0.304379,-0.309058,1.29266
1535253251160416,-0.304293,-0.308956,1.29261
1535253251183440,-0.304293,-0.308956,1.29261
1535253251206005,-0.304293,-0.308956,1.29261
1535253251221044,-0.304293,-0.308956,1.29261
1535253251243097,-0.304293,-0.308956,1.29261
1535253251265660,-0.304293,-0.308956,1.29261
1535253251281199,-0.304293,-0.308956,1.29261
1535253251303259,-0.304207,-0.308854,1.29255
1535253251325821,-0.304293,-0.308956,1.29261
1535253251348380,-0.304207,-0.308854,1.29255
1535253251370939,-0.304207,-0.308854,1.29255
1535253251385978,-0.304293,-0.308956,1.29261
1535253251401024,-0.304293,-0.308956,1.29261
1535253251430597,-0.304392,-0.308883,1.29261
1535253251445639,-0.304392,-0.308883,1.29261
1535253251460780,-0.304392,-0.308883,1.29261
1535253251483241,-0.304293,-0.308956,1.29261
1535253251505922,-0.304392,-0.308883,1.29261
1535253251520841,-0.304392,-0.308883,1.29261
1535253251543397,-0.304293,-0.308956,1.29261
1535253251565644,-0.304207,-0.308854,1.29255
1535253251580494,-0.304392,-0.308883,1.29261
1535253251603356,-0.304392,-0.308883,1.29261
1535253251625621,-0.304392,-0.308883,1.29261
1535253251648175,-0.304293,-0.308956,1.29261
1535253251666260,-0.304293,-0.308956,1.29261
1535253251685787,-0.304293,-0.308956,1.29261
1535253251700844,-0.304293,-0.308956,1.29261
1535253251723398,-0.304293,-0.308956,1.29261
1535253251745958,-0.304293,-0.308956,1.29261
1535253251761007,-0.304293,-0.308956,1.29261
1535253251783647,-0.304293,-0.308956,1.29261
1535253251805622,-0.304293,-0.308956,1.29261
1535253251822178,-0.304293,-0.308956,1.29261
1535253251843332,-0.304293,-0.308956,1.29261
1535253251865782,-0.304293,-0.308956,1.29261
1535253251882321,-0.304293,-0.308956,1.29261
1535253251904883,-0.304293,-0.308956,1.29261
1535253251925940,-0.304293,-0.308956,1.29261
1535253251941983,-0.304432,-0.308705,1.29274
1535253251963538,-0.304726,-0.308459,1.29274
1535253251985596,-0.304733,-0.308167,1.29252
1535253252002144,-0.304647,-0.308066,1.29247
1535253252023198,-0.304647,-0.308066,1.29247
1535253252045858,-0.304548,-0.308138,1.29246
1535253252062311,-0.304548,-0.308138,1.29246
1535253252083365,-0.304548,-0.308138,1.29246
1535253252105936,-0.304647,-0.308066,1.29247
1535253252122132,-0.304647,-0.308066,1.29247
1535253252143182,-0.304548,-0.308138,1.29246
1535253252165736,-0.304548,-0.308138,1.29246
1535253252183782,-0.304647,-0.308066,1.29247
1535253252206344,-0.304562,-0.307964,1.29241
1535253252225930,-0.304562,-0.307964,1.29241
1535253252243949,-0.304647,-0.308066,1.29247
1535253252263498,-0.304647,-0.308066,1.29247
1535253252285665,-0.304562,-0.307964,1.29241
1535253252303608,-0.304562,-0.307964,1.29241
1535253252323163,-0.304562,-0.307964,1.29241
1535253252345715,-0.304562,-0.307964,1.29241
1535253252363768,-0.304647,-0.308066,1.29247
1535253252383313,-0.304661,-0.307891,1.29242
1535253252405874,-0.304747,-0.307993,1.29247
1535253252423421,-0.304661,-0.307891,1.29242
1535253252442970,-0.304661,-0.307891,1.29242
1535253252465688,-0.304661,-0.307891,1.29242
1535253252484083,-0.304661,-0.307891,1.29242
1535253252503132,-0.304661,-0.307891,1.29242
1535253252525893,-0.304661,-0.307891,1.29242
1535253252543900,-0.304661,-0.307891,1.29242
1535253252563334,-0.304687,-0.307887,1.29259
1535253252585856,-0.304782,-0.307787,1.29258
1535253252603901,-0.304786,-0.307814,1.2926
1535253252622952,-0.304786,-0.307814,1.2926
1535253252645510,-0.304786,-0.307814,1.2926
1535253252663632,-0.304786,-0.307814,1.2926
1535253252683112,-0.304786,-0.307814,1.2926
1535253252705676,-0.3047,-0.307713,1.29254
1535253252723719,-0.3047,-0.307713,1.29254
1535253252743295,-0.3047,-0.307713,1.29254
1535253252765833,-0.3047,-0.307713,1.29254
1535253252783379,-0.3047,-0.307713,1.29254
1535253252804515,-0.3047,-0.307713,1.29254
1535253252825490,-0.3047,-0.307713,1.29254
1535253252843562,-0.304799,-0.30764,1.29255
1535253252864601,-0.304614,-0.307611,1.29249
1535253252885753,-0.304713,-0.307538,1.2925
1535253252903864,-0.304799,-0.30764,1.29255
1535253252924874,-0.304799,-0.30764,1.29255
1535253252945903,-0.304713,-0.307538,1.2925
1535253252963862,-0.304713,-0.307538,1.2925
1535253252990932,-0.304713,-0.307538,1.2925
1535253253005972,-0.304727,-0.307363,1.29245
1535253253023520,-0.304727,-0.307363,1.29245
1535253253044623,-0.304812,-0.307465,1.29251
1535253253065653,-0.304727,-0.307363,1.29245
1535253253083679,-0.304727,-0.307363,1.29245
1535253253104736,-0.304727,-0.307363,1.29245
1535253253125965,-0.304727,-0.307363,1.29245
1535253253143838,-0.304722,-0.307682,1.29269
1535253253165999,-0.304838,-0.308211,1.2927
1535253253185950,-0.304937,-0.308138,1.29271
1535253253203497,-0.304937,-0.308138,1.29271
1535253253226142,-0.304937,-0.308138,1.29271
1535253253245609,-0.304937,-0.308138,1.29271
1535253253263803,-0.304937,-0.308138,1.29271
1535253253292425,-0.304937,-0.308138,1.29271
1535253253308776,-0.304851,-0.308036,1.29266
1535253253323817,-0.304851,-0.308036,1.29266
1535253253346377,-0.304851,-0.308036,1.29266
1535253253365938,-0.304851,-0.308036,1.29266
1535253253383822,-0.304851,-0.308036,1.29266
1535253253406140,-0.304851,-0.308036,1.29266
1535253253425629,-0.304851,-0.308036,1.29266
1535253253443812,-0.304877,-0.308033,1.29282
1535253253466196,-0.304877,-0.308033,1.29282
1535253253485789,-0.304877,-0.308033,1.29282
1535253253503867,-0.304877,-0.308033,1.29282
1535253253526356,-0.304877,-0.308033,1.29282
1535253253545908,-0.304877,-0.308033,1.29282
1535253253568467,-0.304951,-0.307963,1.29266
1535253253593534,-0.304976,-0.30796,1.29283
1535253253605623,-0.304851,-0.308036,1.29266
1535253253623615,-0.304877,-0.308033,1.29282
1535253253653753,-0.304976,-0.30796,1.29283
1535253253665728,-0.304791,-0.307931,1.29277
1535253253683774,-0.304791,-0.307931,1.29277
1535253253706334,-0.304791,-0.307931,1.29277
1535253253727072,-0.305442,-0.307917,1.29294
1535253253743487,-0.305442,-0.307917,1.29294
1535253253766023,-0.305541,-0.307844,1.29295
1535253253787057,-0.305541,-0.307844,1.29295
1535253253803595,-0.305442,-0.307917,1.29294
1535253253826654,-0.305442,-0.307917,1.29294
1535253253847210,-0.305442,-0.307917,1.29294
1535253253869769,-0.305541,-0.307844,1.29295
1535253253885812,-0.305541,-0.307844,1.29295
1535253253906868,-0.305541,-0.307844,1.29295
1535253253923410,-0.305567,-0.30784,1.29312
1535253253945972,-0.305567,-0.30784,1.29312
1535253253967077,-0.305567,-0.30784,1.29312
1535253253983570,-0.305567,-0.30784,1.29312
1535253254006133,-0.305567,-0.30784,1.29312
1535253254026736,-0.305567,-0.30784,1.29312
1535253254042228,-0.305567,-0.30784,1.29312
1535253254065288,-0.305567,-0.30784,1.29312
1535253254087919,-0.305567,-0.30784,1.29312
1535253254101957,-0.305653,-0.307942,1.29317
1535253254125093,-0.305627,-0.307946,1.293
1535253254147783,-0.305653,-0.307942,1.29317
1535253254169181,-0.305567,-0.30784,1.29312
1535253254185208,-0.305752,-0.307869,1.29318
1535253254207765,-0.305653,-0.307942,1.29317
1535253254222372,-0.305627,-0.307946,1.293
1535253254245432,-0.305752,-0.307869,1.29318
1535253254267991,-0.305726,-0.307873,1.29301
1535253254282030,-0.305627,-0.307946,1.293
1535253254305090,-0.305627,-0.307946,1.293
1535253254327651,-0.305627,-0.307946,1.293
1535253254342187,-0.305627,-0.307946,1.293
1535253254365250,-0.305627,-0.307946,1.293
1535253254404482,-0.305627,-0.307946,1.293
1535253254408871,-0.305713,-0.308047,1.29305
1535253254425424,-0.30571,-0.30802,1.29303
1535253254447983,-0.305809,-0.307947,1.29304
1535253254462006,-0.305627,-0.307946,1.293
1535253254485583,-0.305713,-0.308047,1.29305
1535253254507630,-0.305809,-0.307947,1.29304
1535253254522166,-0.305809,-0.307947,1.29304
1535253254545329,-0.305809,-0.307947,1.29304
1535253254567788,-0.305809,-0.307947,1.29304
1535253254588960,-0.305895,-0.308049,1.29309
1535253254605407,-0.305895,-0.308049,1.29309
1535253254627953,-0.305895,-0.308049,1.29309
1535253254649086,-0.305895,-0.308049,1.29309
1535253254665568,-0.305895,-0.308049,1.29309
1535253254687609,-0.305895,-0.308049,1.29309
1535253254709166,-0.305895,-0.308049,1.29309
1535253254725208,-0.305895,-0.308049,1.29309
1535253254747806,-0.305895,-0.308049,1.29309
1535253254768860,-0.305895,-0.308049,1.29309
1535253254785407,-0.305895,-0.308049,1.29309
1535253254807968,-0.305981,-0.308151,1.29315
1535253254829060,-0.305981,-0.308151,1.29315
1535253254845071,-0.305981,-0.308151,1.29315
1535253254867632,-0.305981,-0.308151,1.29315
1535253254888783,-0.305981,-0.308151,1.29315
1535253254905361,-0.305981,-0.308151,1.29315
1535253254927282,-0.306067,-0.308252,1.2932
1535253254948882,-0.306067,-0.308252,1.2932
1535253254965391,-0.306067,-0.308252,1.2932
1535253254987944,-0.306067,-0.308252,1.2932
1535253255009050,-0.306067,-0.308252,1.2932
1535253255025545,-0.306067,-0.308252,1.2932
1535253255047604,-0.306067,-0.308252,1.2932
1535253255070163,-0.305981,-0.308151,1.29315
1535253255085203,-0.306067,-0.308252,1.2932
1535253255107766,-0.306067,-0.308252,1.2932
1535253255130323,-0.306067,-0.308252,1.2932
1535253255145364,-0.306166,-0.308179,1.29321
1535253255167924,-0.306166,-0.308179,1.29321
1535253255190486,-0.306166,-0.308179,1.29321
1535253255204522,-0.306067,-0.308252,1.2932
1535253255227589,-0.306166,-0.308179,1.29321
1535253255256664,-0.306166,-0.308179,1.29321
1535253255264689,-0.306166,-0.308179,1.29321
1535253255287744,-0.306252,-0.308281,1.29326
1535253255310307,-0.306166,-0.308179,1.29321
1535253255324841,-0.306166,-0.308179,1.29321
1535253255347903,-0.306252,-0.308281,1.29326
1535253255370463,-0.306166,-0.308179,1.29321
1535253255384535,-0.306166,-0.308179,1.29321
1535253255407835,-0.306166,-0.308179,1.29321
1535253255430284,-0.306252,-0.308281,1.29326
1535253255444771,-0.306166,-0.308179,1.29321
1535253255467924,-0.306166,-0.308179,1.29321
1535253255490280,-0.306265,-0.308106,1.29322
1535253255511395,-0.306265,-0.308106,1.29322
1535253255535410,-0.306265,-0.308106,1.29322
1535253255550440,-0.306351,-0.308208,1.29327
1535253255571499,-0.306351,-0.308208,1.29327
1535253255587540,-0.306351,-0.308208,1.29327
1535253255610100,-0.306347,-0.308181,1.29325
1535253255631154,-0.306347,-0.308181,1.29325
1535253255647699,-0.306347,-0.308181,1.29325
1535253255670258,-0.306347,-0.308181,1.29325
1535253255691417,-0.306351,-0.308208,1.29327
1535253255707859,-0.306347,-0.308181,1.29325
1535253255730457,-0.306347,-0.308181,1.29325
1535253255752152,-0.306347,-0.308181,1.29325
1535253255767874,-0.306347,-0.308181,1.29325
1535253255790076,-0.306347,-0.308181,1.29325
1535253255812787,-0.306347,-0.308181,1.29325
1535253255827677,-0.306347,-0.308181,1.29325
1535253255850244,-0.306446,-0.308108,1.29326
1535253255871298,-0.306446,-0.308108,1.29326
1535253255887839,-0.306446,-0.308108,1.29326
1535253255910399,-0.306446,-0.308108,1.29326
1535253255931503,-0.306446,-0.308108,1.29326
1535253255948000,-0.306347,-0.308181,1.29325
1535253255970559,-0.306347,-0.308181,1.29325
1535253255992756,-0.306347,-0.308181,1.29325
1535253256008219,-0.306446,-0.308108,1.29326
1535253256030273,-0.30636,-0.308006,1.2932
1535253256052778,-0.30636,-0.308006,1.2932
1535253256067823,-0.306261,-0.308079,1.2932
1535253256090379,-0.306261,-0.308079,1.2932
1535253256112951,-0.306261,-0.308079,1.2932
1535253256127483,-0.306265,-0.308106,1.29322
1535253256150538,-0.306265,-0.308106,1.29322
1535253256172775,-0.306265,-0.308106,1.29322
1535253256187137,-0.306265,-0.308106,1.29322
1535253256210197,-0.306265,-0.308106,1.29322
1535253256232811,-0.306265,-0.308106,1.29322
1535253256246865,-0.306265,-0.308106,1.29322
1535253256270412,-0.30636,-0.308006,1.2932
1535253256292975,-0.30636,-0.308006,1.2932
1535253256307511,-0.30636,-0.308006,1.2932
1535253256330579,-0.306261,-0.308079,1.2932
1535253256352636,-0.306261,-0.308079,1.2932
1535253256367682,-0.30636,-0.308006,1.2932
1535253256390233,-0.30636,-0.308006,1.2932
1535253256412848,-0.30636,-0.308006,1.2932
1535253256427330,-0.30636,-0.308006,1.2932
1535253256450391,-0.306261,-0.308079,1.2932
1535253256472952,-0.306265,-0.308106,1.29322
1535253256494018,-0.306265,-0.308106,1.29322
1535253256510552,-0.306261,-0.308079,1.2932
1535253256533123,-0.306265,-0.308106,1.29322
1535253256553920,-0.30636,-0.308006,1.2932
1535253256570420,-0.30636,-0.308006,1.2932
1535253256592772,-0.30636,-0.308006,1.2932
1535253256621348,-0.30636,-0.308006,1.2932
1535253256630371,-0.30636,-0.308006,1.2932
1535253256652929,-0.30636,-0.308006,1.2932
1535253256681505,-0.30636,-0.308006,1.2932
1535253256690531,-0.30636,-0.308006,1.2932
1535253256713002,-0.30636,-0.308006,1.2932
1535253256733692,-0.306386,-0.308003,1.29337
1535253256750433,-0.30639,-0.30803,1.29339
1535253256772892,-0.306386,-0.308003,1.29337
1535253256793948,-0.306304,-0.307928,1.29334
1535253256810490,-0.306304,-0.307928,1.29334
1535253256833052,-0.306403,-0.307855,1.29334
1535253256854106,-0.306304,-0.307928,1.29334
1535253256870201,-0.306304,-0.307928,1.29334
1535253256898723,-0.306403,-0.307855,1.29334
1535253256921327,-0.306403,-0.307855,1.29334
1535253256930311,-0.306403,-0.307855,1.29334
1535253256960467,-0.306403,-0.307855,1.29334
1535253256982952,-0.3064,-0.307828,1.29332
1535253256990472,-0.3064,-0.307828,1.29332
1535253257013035,-0.3064,-0.307828,1.29332
1535253257035091,-0.3063,-0.307901,1.29332
1535253257049628,-0.3063,-0.307901,1.29332
1535253257072689,-0.306304,-0.307928,1.29334
1535253257095252,-0.306304,-0.307928,1.29334
1535253257109787,-0.306304,-0.307928,1.29334
1535253257132848,-0.3064,-0.307828,1.29332
1535253257155408,-0.3064,-0.307828,1.29332
1535253257169607,-0.3064,-0.307828,1.29332
1535253257192518,-0.3063,-0.307901,1.29332
1535253257215070,-0.306304,-0.307928,1.29334
1535253257229826,-0.3063,-0.307901,1.29332
1535253257252809,-0.306486,-0.30793,1.29338
1535253257275226,-0.306486,-0.30793,1.29338
1535253257289765,-0.306386,-0.308003,1.29337
1535253257312833,-0.306486,-0.30793,1.29338
1535253257335479,-0.306386,-0.308003,1.29337
1535253257349426,-0.306386,-0.308003,1.29337
1535253257372996,-0.306486,-0.30793,1.29338
1535253257402566,-0.306386,-0.308003,1.29337
1535253257416197,-0.306486,-0.30793,1.29338
1535253257432662,-0.306486,-0.30793,1.29338
1535253257455206,-0.306546,-0.308035,1.29326
1535253257477768,-0.306546,-0.308035,1.29326
1535253257492805,-0.306546,-0.308035,1.29326
1535253257515367,-0.306546,-0.308035,1.29326
1535253257536469,-0.306546,-0.308035,1.29326
1535253257559028,-0.306446,-0.308108,1.29326
1535253257575531,-0.306446,-0.308108,1.29326
1535253257596651,-0.306546,-0.308035,1.29326
1535253257612687,-0.306546,-0.308035,1.29326
1535253257635248,-0.306632,-0.308137,1.29332
1535253257656648,-0.306632,-0.308137,1.29332
1535253257672686,-0.306632,-0.308137,1.29332
1535253257695244,-0.306632,-0.308137,1.29332
1535253257716300,-0.306718,-0.308238,1.29337
1535253257732947,-0.306718,-0.308238,1.29337
1535253257755402,-0.306718,-0.308238,1.29337
1535253257776567,-0.306632,-0.308137,1.29332
1535253257793005,-0.306632,-0.308137,1.29332
1535253257815189,-0.306632,-0.308137,1.29332
1535253257836671,-0.306718,-0.308238,1.29337
1535253257853164,-0.306718,-0.308238,1.29337
1535253257875230,-0.306718,-0.308238,1.29337
1535253257897783,-0.306718,-0.308238,1.29337
1535253257912823,-0.306718,-0.308238,1.29337
1535253257935382,-0.306817,-0.308165,1.29338
1535253257957943,-0.306817,-0.308165,1.29338
1535253257972982,-0.306718,-0.308238,1.29337
1535253258002935,-0.306718,-0.308238,1.29337
1535253258017607,-0.306804,-0.30834,1.29342
1535253258032152,-0.306903,-0.308267,1.29343
1535253258055532,-0.306903,-0.308267,1.29343
1535253258078096,-0.306817,-0.308165,1.29338
1535253258092134,-0.306817,-0.308165,1.29338
1535253258115191,-0.306817,-0.308165,1.29338
1535253258138348,-0.306817,-0.308165,1.29338
1535253258152288,-0.306903,-0.308267,1.29343
1535253258175352,-0.306903,-0.308267,1.29343
1535253258197909,-0.306899,-0.30824,1.29341
1535253258212192,-0.306899,-0.30824,1.29341
1535253258235517,-0.306899,-0.30824,1.29341
1535253258257570,-0.306899,-0.30824,1.29341
1535253258272431,-0.306899,-0.30824,1.29341
1535253258295672,-0.306998,-0.308167,1.29342
1535253258325251,-0.306912,-0.308065,1.29336
1535253258332269,-0.306916,-0.308092,1.29338
1535253258355328,-0.306912,-0.308065,1.29336
1535253258377889,-0.306998,-0.308167,1.29342
1535253258398950,-0.306998,-0.308167,1.29342
1535253258415487,-0.306998,-0.308167,1.29342
1535253258437912,-0.306998,-0.308167,1.29342
1535253258459104,-0.306998,-0.308167,1.29342
1535253258475147,-0.306998,-0.308167,1.29342
1535253258497835,-0.306998,-0.308167,1.29342
1535253258518762,-0.306998,-0.308167,1.29342
1535253258535306,-0.306912,-0.308065,1.29336
1535253258557365,-0.306998,-0.308167,1.29342
1535253258578925,-0.306998,-0.308167,1.29342
1535253258595469,-0.306938,-0.308061,1.29353
1535253258618027,-0.307123,-0.30809,1.29359
1535253258639087,-0.307097,-0.308094,1.29343
1535253258655135,-0.307123,-0.30809,1.29359
1535253258677864,-0.307123,-0.30809,1.29359
1535253258698750,-0.307123,-0.30809,1.29359
1535253258715496,-0.307123,-0.30809,1.29359
1535253258737850,-0.307123,-0.30809,1.29359
1535253258758904,-0.307123,-0.30809,1.29359
1535253258775446,-0.307123,-0.30809,1.29359
1535253258798007,-0.307123,-0.30809,1.29359
1535253258820568,-0.307037,-0.307988,1.29354
1535253258842640,-0.307037,-0.307988,1.29354
1535253258864186,-0.307037,-0.307988,1.29354
1535253258880277,-0.307037,-0.307988,1.29354
1535253258895266,-0.307037,-0.307988,1.29354
1535253258917840,-0.307037,-0.307988,1.29354
1535253258940272,-0.307037,-0.307988,1.29354
1535253258954602,-0.307037,-0.307988,1.29354
1535253258977768,-0.306951,-0.307887,1.29349
1535253259000221,-0.306951,-0.307887,1.29349
1535253259014761,-0.306951,-0.307887,1.29349
1535253259037821,-0.306955,-0.307914,1.29351
1535253259060382,-0.306955,-0.307914,1.29351
1535253259074418,-0.306951,-0.307887,1.29349
1535253259097985,-0.306955,-0.307914,1.29351
1535253259120546,-0.306951,-0.307887,1.29349
1535253259134592,-0.306955,-0.307914,1.29351
1535253259157641,-0.306869,-0.307812,1.29345
1535253259180202,-0.306869,-0.307812,1.29345
1535253259202816,-0.306869,-0.307812,1.29345
1535253259217801,-0.306869,-0.307812,1.29345
1535253259240860,-0.306869,-0.307812,1.29345
1535253259254401,-0.306869,-0.307812,1.29345
1535253259277458,-0.306783,-0.307711,1.2934
1535253259300022,-0.306783,-0.307711,1.2934
1535253259321713,-0.306783,-0.307711,1.2934
1535253259338124,-0.306882,-0.307638,1.29341
1535253259360320,-0.306783,-0.307711,1.2934
1535253259381237,-0.306783,-0.307711,1.2934
1535253259398120,-0.306783,-0.307711,1.2934
1535253259420339,-0.306783,-0.307711,1.2934
1535253259441395,-0.306783,-0.307711,1.2934
1535253259458021,-0.306783,-0.307711,1.2934
1535253259479998,-0.306783,-0.307711,1.2934
1535253259501556,-0.306783,-0.307711,1.2934
1535253259518100,-0.306697,-0.307609,1.29335
1535253259540365,-0.306697,-0.307609,1.29335
1535253259561328,-0.306697,-0.307609,1.29335
1535253259577839,-0.306697,-0.307609,1.29335
1535253259600319,-0.306697,-0.307609,1.29335
1535253259621373,-0.306697,-0.307609,1.29335
1535253259637917,-0.306697,-0.307609,1.29335
1535253259660476,-0.306697,-0.307609,1.29335
1535253259681582,-0.306796,-0.307536,1.29335
1535253259698116,-0.306697,-0.307609,1.29335
1535253259720251,-0.306697,-0.307609,1.29335
1535253259741195,-0.306697,-0.307609,1.29335
1535253259757736,-0.306697,-0.307609,1.29335
1535253259780486,-0.306697,-0.307609,1.29335
1535253259802860,-0.306697,-0.307609,1.29335
1535253259817898,-0.306697,-0.307609,1.29335
1535253259840463,-0.306796,-0.307536,1.29335
1535253259863018,-0.306796,-0.307536,1.29335
1535253259877055,-0.306796,-0.307536,1.29335
1535253259900334,-0.306796,-0.307536,1.29335
1535253259922841,-0.306796,-0.307536,1.29335
1535253259943735,-0.306796,-0.307536,1.29335
1535253259960280,-0.306796,-0.307536,1.29335
1535253259982885,-0.306796,-0.307536,1.29335
1535253259996879,-0.307176,-0.307737,1.29367
1535253260020434,-0.307176,-0.307737,1.29367
1535253260042493,-0.307176,-0.307737,1.29367
1535253260057031,-0.30715,-0.307741,1.2935
1535253260080092,-0.30705,-0.307814,1.29349
1535253260102654,-0.30705,-0.307814,1.29349
1535253260117397,-0.307076,-0.30781,1.29366
1535253260140255,-0.307176,-0.307737,1.29367
1535253260162825,-0.30705,-0.307814,1.29349
1535253260177353,-0.30705,-0.307814,1.29349
1535253260200414,-0.30715,-0.307741,1.2935
1535253260229030,-0.30715,-0.307741,1.2935
1535253260251557,-0.30715,-0.307741,1.2935
1535253260267695,-0.30715,-0.307741,1.2935
1535253260290176,-0.30715,-0.307741,1.2935
1535253260303691,-0.306766,-0.308204,1.29369
1535253260320230,-0.306607,-0.308921,1.29382
1535253260342824,-0.305883,-0.3101,1.2941
1535253260363659,-0.305617,-0.311093,1.2943
1535253260380260,-0.305798,-0.31144,1.2946
1535253260402762,-0.307037,-0.311939,1.29491
1535253260423818,-0.306915,-0.312043,1.29475
1535253260430839,-0.306829,-0.311941,1.2947
1535253260445486,-0.307126,-0.311722,1.29472
1535253260467936,-0.307126,-0.311722,1.29472
1535253260490545,-0.307113,-0.311551,1.29451
1535253260505584,-0.307056,-0.311127,1.29438
1535253260529650,-0.307466,-0.31066,1.29437
1535253260550706,-0.306956,-0.310104,1.29408
1535253260565745,-0.306896,-0.309999,1.2942
1535253260588337,-0.306896,-0.309999,1.2942
1535253260610912,-0.306896,-0.309999,1.2942
1535253260625907,-0.306956,-0.310104,1.29408
1535253260648612,-0.306956,-0.310104,1.29408
1535253260670568,-0.306896,-0.309999,1.2942
1535253260685566,-0.306995,-0.309926,1.29421
1535253260708166,-0.306982,-0.310101,1.29425
1535253260730689,-0.307081,-0.310028,1.29426
1535253260745777,-0.307081,-0.310028,1.29426
1535253260775819,-0.306676,-0.309516,1.29416
1535253260790846,-0.306702,-0.309512,1.29433
1535253260805886,-0.306702,-0.309512,1.29433
1535253260828462,-0.306702,-0.309512,1.29433
1535253260850614,-0.306616,-0.30941,1.29428
1535253260867056,-0.306616,-0.30941,1.29428
1535253260888145,-0.306702,-0.309512,1.29433
1535253260910674,-0.306702,-0.309512,1.29433
1535253260925704,-0.306702,-0.309512,1.29433
